ecg,gsr,temp,hr,spo2,timest
1.5934,0.3666,39.0600,80,97,25393
1.5982,0.3617,39.2500,80,97,25396
1.6031,0.3568,39.2200,80,97,25400
1.6031,0.3568,39.3200,80,97,25403
1.6129,0.3519,39.3500,80,97,25406
1.6569,0.3666,39.1900,80,97,25409
1.6373,0.3568,39.2800,80,97,25413
1.6520,0.3568,39.2200,80,97,25416
1.6520,0.3568,39.2800,80,97,25419
1.6569,0.3519,39.2800,80,97,25422
1.7058,0.3666,39.3500,80,97,25426
1.6862,0.3617,39.2500,80,97,25430
1.7009,0.3568,39.2500,80,97,25433
1.6960,0.3568,39.3200,80,97,25436
1.6960,0.3519,39.3500,80,97,25440
1.7351,0.3666,39.5400,80,97,25443
1.7155,0.3617,39.1200,80,97,25446
1.7155,0.3568,39.2200,80,97,25449
1.7058,0.3568,39.3200,80,97,25453
1.7155,0.3666,39.3200,80,97,25456
1.7595,0.4008,39.1600,80,97,25459
1.7351,0.3568,39.2200,80,97,25462
1.7498,0.3568,39.2200,80,97,25466
1.7498,0.3568,39.3200,80,97,25469
1.7595,0.3519,39.3200,80,97,25473
1.8084,0.3666,39.1900,80,97,25476
1.7742,0.3812,39.2800,80,97,25480
1.7840,0.3568,39.2200,80,97,25483
1.7791,0.3568,38.6800,80,97,25486
1.7742,0.3519,39.3200,80,97,25489
1.8231,0.3715,39.1600,80,97,25493
1.8035,0.3617,39.2500,80,97,25496
1.8377,0.3519,39.2200,80,97,25499
1.8035,0.3910,39.2800,80,97,25502
1.8182,0.3519,39.3200,80,97,25506
1.8622,0.3666,39.1600,80,97,25509
1.8377,0.3568,39.3200,80,97,25512
1.8719,0.3519,39.2200,80,97,25516
1.8622,0.3666,39.2800,80,97,25520
1.8671,0.3568,39.3200,80,97,25523
1.9062,0.3715,39.2200,80,97,25526
1.8915,0.3568,39.0900,80,97,25529
1.9013,0.3568,39.2200,80,97,25533
1.9013,0.3568,39.3500,80,97,25536
1.9404,0.3470,39.3200,80,97,25539
1.9550,0.3666,39.1200,80,97,25542
1.9453,0.3617,39.2800,80,97,25546
1.9501,0.3568,39.2800,80,97,25549
1.9453,0.3568,39.3500,80,97,25552
1.9501,0.3519,39.3200,80,97,25555
1.9844,0.3568,39.1600,80,97,25560
1.9501,0.3568,39.2800,80,97,25563
1.9648,0.3568,39.2200,80,97,25566
1.9501,0.3568,39.3200,80,97,25570
1.9550,0.3568,39.3200,80,97,25573
2.0039,0.3715,39.1900,80,97,25576
1.9746,0.3666,39.2800,80,97,25579
1.9795,0.3568,39.2500,80,97,25583
1.9648,0.3617,39.2800,80,97,25586
1.9599,0.3568,39.3200,80,97,25589
1.9892,0.3666,39.1600,80,97,25592
1.9550,0.3617,39.2500,80,97,25596
1.9550,0.3470,39.1900,80,97,25600
1.9110,0.3812,39.3200,80,97,25603
1.8915,0.3519,39.5100,80,97,25606
1.9062,0.3666,39.1900,80,97,25610
1.8524,0.3568,39.3200,80,97,25613
1.8426,0.3617,39.2200,80,97,25616
1.7986,0.3470,39.3200,80,97,25619
1.7693,0.3812,39.3800,80,97,25623
1.7644,0.3666,38.4300,80,97,25626
1.7155,0.3470,39.2500,80,97,25629
1.6862,0.3666,39.2800,80,97,25632
1.6471,0.3568,39.3500,80,97,25636
1.6227,0.3519,39.3200,80,97,25639
1.6373,0.3666,39.1200,80,97,25643
1.5982,0.3617,38.5800,80,97,25646
1.5836,0.3568,39.1900,80,97,25650
1.5591,0.3519,39.3200,80,97,25653
1.5543,0.3812,39.2800,80,97,25656
1.5836,0.3617,38.4600,80,97,25659
1.5640,0.3568,39.3800,80,97,25663
1.5787,0.3470,39.1900,80,97,25666
1.5689,0.3519,39.3200,80,97,25669
1.5738,0.3568,39.3200,80,97,25672
1.6080,0.3666,39.2200,80,97,25676
1.5982,0.3617,39.2800,80,97,25679
1.6031,0.3568,39.2200,80,97,25682
1.5982,0.3568,39.3200,80,97,25686
1.6031,0.3519,39.3200,80,97,25690
1.6422,0.3666,39.1200,80,97,25693
1.6325,0.3666,39.2800,80,97,25696
1.6373,0.3568,39.3200,80,97,25699
1.6276,0.3617,39.3200,80,97,25703
1.6227,0.3568,39.3200,80,97,25706
1.6667,0.3763,39.1900,80,97,25709
1.6520,0.3568,39.2800,80,97,25712
1.6716,0.3568,39.2200,80,97,25716
1.6716,0.3568,39.3200,80,97,25719
1.6911,0.3568,39.3200,80,97,25724
1.6960,0.3568,39.3200,80,97,25728
1.7302,0.3861,39.2500,80,97,25731
1.7058,0.3568,39.3500,80,97,25734
1.7400,0.3617,39.2500,80,97,25738
1.7107,0.3568,39.3200,80,97,25741
1.7204,0.3861,39.3200,80,97,25744
1.7351,0.3617,39.2500,80,97,25747
1.7155,0.3568,39.1900,80,97,25751
1.7449,0.3617,39.2200,80,97,25754
1.7058,0.3568,39.3500,80,97,25757
1.7155,0.3519,39.3200,80,97,25760
1.7253,0.3617,39.3200,80,97,25764
1.7155,0.3617,39.3800,80,97,25767
1.7449,0.3617,39.1600,80,97,25771
1.7155,0.3568,39.4800,80,97,25774
1.7204,0.3519,39.3200,80,97,25778
1.7449,0.3617,39.2200,80,97,25781
1.7204,0.3519,39.3500,80,97,25784
1.7498,0.3519,39.1900,80,97,25787
1.7155,0.3617,39.2800,80,97,25791
1.7107,0.3568,39.3200,80,97,25794
1.7400,0.3861,39.2200,80,97,25797
1.7204,0.3568,39.3200,80,97,25800
1.7546,0.3568,39.1900,80,97,25804
1.7204,0.3617,39.2800,80,97,25807
1.7204,0.3519,38.8700,80,97,25810
1.7351,0.3568,39.2500,80,97,25814
1.7204,0.3568,39.3200,80,97,25818
1.7498,0.3715,39.1900,80,97,25821
1.7155,0.3568,39.3200,80,97,25824
1.7204,0.3568,39.3500,80,97,25827
1.7498,0.3666,39.4100,80,97,25831
1.7253,0.3568,39.1600,80,97,25834
1.7546,0.3568,39.2500,80,97,25837
1.7351,0.3470,39.2800,80,97,25841
1.7351,0.3519,39.3200,80,97,25844
1.7644,0.3617,39.2200,80,97,25847
1.7400,0.3812,39.3200,80,97,25850
1.7693,0.3568,38.9600,80,97,25854
1.7351,0.3519,39.3200,80,97,25858
1.7400,0.3470,39.3500,80,97,25861
1.7498,0.3568,39.2500,80,97,25864
1.7449,0.3568,39.2800,80,97,25868
1.7742,0.3617,39.1900,80,97,25871
1.7498,0.3568,39.3200,80,97,25874
1.7644,0.3470,39.3200,80,97,25877
1.8084,0.3666,39.1900,80,97,25881
1.7840,0.3519,39.3200,80,97,25884
1.8182,0.3568,39.2500,80,97,25887
1.7937,0.3519,39.2500,80,97,25890
1.7986,0.3568,39.3200,80,97,25894
1.8133,0.3617,39.2200,80,97,25897
1.7986,0.3617,39.3200,80,97,25901
1.8280,0.3617,39.1900,80,97,25904
1.8133,0.3519,39.5400,80,97,25908
1.8377,0.3568,39.3200,80,97,25911
1.8671,0.3568,39.2500,80,97,25914
1.8768,0.3519,39.3200,80,97,25917
1.9110,0.3568,39.2500,80,97,25921
1.8866,0.3421,39.2800,80,97,25924
1.8915,0.3568,39.3500,80,97,25927
1.9013,0.3617,39.1900,80,97,25930
1.8719,0.3568,39.3500,80,97,25934
1.9062,0.3519,39.2200,80,97,25937
1.8426,0.3519,39.3200,80,97,25940
1.8328,0.3568,39.3500,80,97,25944
1.8280,0.3617,39.2800,80,97,25948
1.7986,0.3568,39.2800,80,97,25951
1.7986,0.3617,39.2200,80,97,25954
1.7546,0.3519,39.3500,80,97,25957
1.7498,0.3568,39.3200,80,97,25961
1.7498,0.3568,39.2500,80,97,25964
1.7351,0.3568,39.3200,80,97,25967
1.7449,0.3519,39.2200,80,97,25970
1.7449,0.3519,39.3200,80,97,25974
1.7155,0.3617,39.3200,80,97,25977
1.7400,0.3812,39.1900,80,97,25980
1.7204,0.3568,39.1900,80,97,25984
1.7449,0.3568,39.1900,80,97,25988
1.7204,0.3519,39.2800,80,97,25991
1.7253,0.3519,39.3500,80,97,25994
1.7449,0.3617,39.2200,80,97,25997
1.7302,0.3519,39.5100,80,97,26001
1.7644,0.3568,39.1600,80,97,26004
1.7400,0.3470,39.3200,80,97,26007
1.7400,0.3470,39.3200,80,97,26010
1.7449,0.3568,39.3800,80,97,26014
1.7351,0.3568,39.3200,80,97,26017
1.7840,0.3568,39.1900,80,97,26020
1.7351,0.3519,39.3200,80,97,26023
1.7498,0.3568,39.3800,80,97,26028
1.7937,0.3666,39.1200,80,97,26031
1.7791,0.3568,39.3500,80,97,26034
1.8231,0.3568,39.2200,80,97,26037
1.8280,0.3519,39.2500,80,97,26041
1.8817,0.3617,39.3500,80,97,26044
2.0137,0.3617,39.2200,80,97,26047
2.1603,0.3568,39.3200,80,97,26050
2.4389,0.3470,39.1900,80,97,26054
2.7028,0.3470,39.3800,80,97,26057
3.0352,0.3715,39.2800,80,97,26060
3.3382,0.3568,39.2800,80,97,26063
3.4946,0.3519,39.3200,80,97,26067
3.5239,0.3861,39.2500,80,97,26071
3.3089,0.3617,39.3200,80,97,26074
2.9814,0.3568,39.3200,80,97,26077
2.5758,0.3666,39.1900,80,97,26081
2.0723,0.3519,39.3200,80,97,26084
1.6911,0.3715,39.2200,80,97,26087
1.3587,0.3519,39.2800,80,97,26090
1.1584,0.3519,39.3500,80,97,26094
1.0606,0.3568,39.2200,80,97,26097
1.0020,0.3568,39.2800,80,97,26100
1.0166,0.3617,39.2200,80,97,26103
1.0459,0.3617,39.3200,80,97,26107
1.1095,0.3568,39.3200,80,97,26110
1.2121,0.3568,39.2800,80,97,26114
1.2952,0.3568,39.3200,80,97,26117
1.4272,0.3666,39.2200,80,97,26121
1.4614,0.3568,39.3200,80,97,26124
1.5445,0.3519,39.3200,80,97,26127
1.5934,0.3666,39.3200,80,97,26130
1.5982,0.3519,39.3200,80,97,26134
1.6471,0.3666,39.4800,80,97,26137
1.6422,0.3568,39.3200,80,97,26140
1.6667,0.3519,39.3200,80,97,26143
1.6911,0.3470,39.2500,80,97,26147
1.6911,0.3812,39.3200,80,97,26150
1.7253,0.3666,39.2200,80,97,26153
1.7058,0.3568,39.1200,80,97,26157
1.7155,0.3519,39.3500,80,97,26161
1.7302,0.3470,39.2500,80,97,26164
1.7253,0.3568,39.3500,80,97,26167
1.7498,0.3666,39.1600,80,97,26170
1.7253,0.3617,39.2800,80,97,26174
1.7302,0.3568,39.4100,80,97,26177
1.7595,0.3666,39.2200,80,97,26180
1.7253,0.3568,39.3200,80,97,26184
1.7840,0.3666,39.2200,80,97,26187
1.7400,0.3617,39.3200,80,97,26190
1.7449,0.3568,39.4400,80,97,26193
1.7742,0.3617,39.2200,80,97,26198
1.7546,0.3568,39.3200,80,97,26201
1.7791,0.3666,39.2200,80,97,26204
1.7546,0.3568,39.3200,80,97,26207
1.7595,0.3568,39.4800,80,97,26211
1.7742,0.3568,39.2500,80,97,26214
1.7644,0.3568,39.3200,80,97,26217
1.7986,0.3568,39.2200,80,97,26220
1.7742,0.3519,39.3200,80,97,26224
1.7840,0.3568,39.3800,80,97,26227
1.8231,0.3666,39.1900,80,97,26230
1.7986,0.3568,39.4100,80,97,26233
1.8328,0.3666,39.2200,80,97,26237
1.8182,0.3519,39.2800,80,97,26241
1.8231,0.3519,39.3500,80,97,26244
1.8524,0.3617,39.2200,80,97,26247
1.8280,0.3519,39.2500,80,97,26251
1.8622,0.3763,39.2500,80,97,26254
1.8377,0.3568,39.3500,80,97,26257
1.8671,0.3470,39.3500,80,97,26260
1.8622,0.3568,39.2500,80,97,26264
1.8622,0.3568,39.3500,80,97,26267
1.8964,0.3666,39.2200,80,97,26270
1.8719,0.3568,39.3500,80,97,26273
1.8768,0.3470,39.3200,80,97,26277
1.9110,0.4008,39.1900,80,97,26280
1.8915,0.3568,39.3500,80,97,26284
1.9257,0.3666,39.1900,80,97,26287
1.9013,0.3470,39.3200,80,97,26291
1.9110,0.3568,39.3200,80,97,26294
1.9404,0.3666,39.2500,80,97,26297
1.9208,0.3568,39.3200,80,97,26300
1.9550,0.3666,39.1900,80,97,26304
1.9306,0.3519,39.3200,80,97,26307
1.9355,0.3568,39.2800,80,97,26310
1.9550,0.3568,39.4400,80,97,26313
1.9501,0.3568,39.3500,80,97,26317
1.9746,0.3617,39.2200,80,97,26320
1.9550,0.3568,39.3200,80,97,26323
1.9501,0.3568,39.2800,80,97,26327
1.9844,0.3666,39.1900,79,97,26331
1.9062,0.3617,39.1900,79,97,26335
1.8817,0.3519,39.3200,79,97,26339
1.8866,0.3812,39.1200,79,97,26342
1.8426,0.3519,39.2500,79,97,26345
1.8182,0.3519,39.3500,79,97,26348
1.8035,0.3617,39.2500,79,97,26352
1.7889,0.3568,39.3200,79,97,26355
1.7644,0.3568,39.0900,79,97,26358
1.7107,0.3568,39.2800,79,97,26361
1.6911,0.3568,39.3200,79,97,26365
1.6960,0.3617,39.2200,79,97,26369
1.6667,0.3568,39.3200,79,97,26372
1.6716,0.3617,39.1900,79,97,26375
1.6422,0.3519,39.2200,79,97,26379
1.6227,0.3519,38.7100,79,97,26382
1.6276,0.3617,39.2500,79,97,26385
1.5982,0.3568,39.3500,79,97,26388
1.6373,0.3617,39.1600,79,97,26392
1.6129,0.3568,39.2200,79,97,26395
1.6325,0.3519,39.3800,79,97,26398
1.6227,0.3812,39.2500,79,97,26401
1.6178,0.3568,39.3200,79,97,26405
1.6520,0.3617,39.1200,79,97,26408
1.6325,0.3519,39.3500,79,97,26412
1.6422,0.3519,39.3200,79,97,26415
1.6618,0.3666,39.2200,79,97,26419
1.6471,0.3568,39.3200,79,97,26422
1.6813,0.3666,39.1200,79,97,26425
1.6667,0.3568,39.2200,79,97,26428
1.6716,0.3568,39.4100,79,97,26432
1.6911,0.3617,39.1600,79,97,26435
1.6813,0.3519,39.3500,79,97,26438
1.7400,0.3617,39.0900,79,97,26441
1.7058,0.3519,39.2200,79,97,26445
1.7107,0.3568,39.3500,79,97,26448
1.7253,0.3617,39.2800,79,97,26451
1.7449,0.3519,39.3200,79,97,26455
1.7644,0.3617,39.1200,79,97,26459
1.7400,0.3763,39.3800,79,97,26462
1.7498,0.3519,39.3200,79,97,26465
1.7644,0.3666,39.2200,79,97,26468
1.7449,0.3568,39.3200,79,97,26472
1.7742,0.3568,39.1200,79,97,26475
1.7546,0.3568,39.2500,79,97,26478
1.7449,0.3519,39.3800,79,97,26481
1.7546,0.3568,39.2800,79,97,26485
1.7400,0.3470,39.2800,79,97,26488
1.7693,0.3666,39.1200,79,97,26491
1.7449,0.3666,39.2800,79,97,26494
1.7400,0.3568,39.3200,79,97,26499
1.7595,0.3568,39.2500,79,97,26502
1.7449,0.3617,39.3200,79,97,26505
1.7693,0.3617,39.1900,79,97,26508
1.7400,0.3568,39.2800,79,97,26512
1.7449,0.3519,39.3200,79,97,26515
1.7546,0.3470,39.2500,79,97,26518
1.7498,0.3519,39.3500,79,97,26521
1.7693,0.3617,39.1200,79,97,26525
1.7498,0.3568,39.2500,79,97,26528
1.7400,0.3519,39.3200,79,97,26531
1.7546,0.3617,39.2500,79,97,26534
1.7644,0.3519,39.3500,79,97,26539
1.7595,0.3666,39.1200,79,97,26542
1.7253,0.3568,39.2500,79,97,26545
1.7253,0.3519,39.3500,79,97,26548
1.7351,0.3568,39.2800,79,97,26552
1.7302,0.3568,39.3200,79,97,26555
1.7595,0.3617,39.1200,79,97,26558
1.7302,0.3519,39.2800,79,97,26561
1.7351,0.3519,39.3800,79,97,26565
1.7595,0.3617,39.2200,79,97,26568
1.7351,0.3568,39.3200,79,97,26571
1.7644,0.3617,39.1200,79,97,26575
1.7498,0.3666,39.2200,79,97,26578
1.7449,0.3763,39.3500,79,97,26582
1.7546,0.3666,39.2500,79,97,26585
1.7351,0.3568,39.2800,79,97,26589
1.7693,0.3617,39.1200,79,97,26592
1.7449,0.3568,39.2200,79,97,26595
1.7400,0.3568,39.3500,79,97,26598
1.7546,0.3666,39.2500,79,97,26602
1.7546,0.3568,39.3200,79,97,26605
1.7937,0.3617,39.1600,79,97,26608
1.7693,0.3568,39.5700,79,97,26611
1.7840,0.3470,39.3200,79,97,26615
1.8133,0.3617,39.2200,79,97,26618
1.8035,0.3568,39.3200,79,97,26621
1.8475,0.3715,39.1200,79,97,26625
1.8377,0.3568,39.5700,79,97,26629
1.8377,0.3568,39.3200,79,97,26632
1.8524,0.3617,39.2500,79,97,26635
1.8377,0.3470,39.3200,79,97,26638
1.8622,0.3617,39.1600,79,97,26642
1.8426,0.3568,39.2200,79,97,26645
1.8524,0.3568,39.3200,79,97,26648
1.8719,0.3617,39.3500,79,97,26651
1.8768,0.3470,39.3200,79,97,26655
1.9159,0.3666,39.1200,79,97,26658
1.8866,0.3617,39.3200,79,97,26661
1.8915,0.3519,39.3200,79,97,26664
1.9110,0.3666,39.3500,79,97,26669
1.8817,0.3568,39.3500,79,97,26672
1.9110,0.3617,39.1200,79,97,26675
1.8768,0.3568,39.2200,79,97,26678
1.8475,0.3568,39.3500,79,97,26682
1.8426,0.3617,39.2500,79,97,26685
1.8084,0.3568,39.3200,79,97,26688
1.8328,0.3617,39.1200,79,97,26691
1.7986,0.3568,39.2200,79,97,26695
1.7791,0.3568,39.3200,79,97,26698
1.7791,0.3617,39.3200,79,97,26701
1.7546,0.3812,39.2800,79,97,26704
1.7742,0.3617,39.2200,79,97,26708
1.7302,0.3568,39.2200,79,97,26712
1.7302,0.3470,39.3500,79,97,26715
1.7400,0.3666,39.2200,79,97,26718
1.7253,0.3470,39.3800,79,97,26722
1.7644,0.3617,39.2200,79,97,26725
1.7498,0.3568,39.2500,79,97,26728
1.7693,0.3568,39.3200,79,97,26731
1.7644,0.3617,39.2500,79,97,26735
1.7595,0.3812,39.3500,79,97,26738
1.7840,0.3617,39.0900,79,97,26741
1.7546,0.3568,39.1900,79,97,26744
1.7498,0.3568,39.3200,79,97,26748
1.7595,0.3470,39.2800,79,97,26752
1.7498,0.3763,39.3200,79,97,26755
1.7840,0.3617,39.2800,79,97,26758
1.7498,0.3568,39.2200,79,97,26762
1.7644,0.3568,39.3200,79,97,26765
1.7889,0.3666,39.2500,79,97,26768
1.7889,0.3568,39.3200,79,97,26772
1.8426,0.3568,39.1200,79,97,26775
1.8426,0.3617,39.1900,79,97,26778
1.8719,0.3519,39.3500,79,97,26781
1.9697,0.3617,39.2800,79,97,26785
2.0968,0.3568,39.3500,79,97,26788
2.3851,0.3715,39.1200,79,97,26791
2.6295,0.3470,39.2500,79,97,26795
2.9570,0.3470,39.3500,79,97,26799
3.3089,0.3617,39.3500,79,97,26802
3.5435,0.3568,39.3200,79,97,26805
3.7097,0.3519,39.0900,79,97,26808
3.5728,0.3568,39.3500,79,97,26812
3.3333,0.3568,39.3200,79,97,26815
2.9472,0.3568,39.2500,79,97,26818
2.4047,0.3568,39.3500,79,97,26821
1.9795,0.3666,39.1600,79,97,26825
1.5689,0.3568,39.1900,79,97,26828
1.2903,0.3519,39.3800,79,97,26831
1.1339,0.3617,39.2800,79,97,26834
1.0411,0.3568,39.3200,79,97,26839
1.0411,0.3568,39.1200,79,97,26842
1.0557,0.3568,39.2200,79,97,26845
1.1241,0.3519,39.3500,79,97,26848
1.2170,0.3617,39.3800,79,97,26852
1.3050,0.3470,39.3200,79,97,26855
1.4027,0.3861,39.0900,79,97,26858
1.4516,0.3568,39.4100,79,97,26861
1.5103,0.3568,39.3200,79,97,26865
1.5640,0.3470,39.2800,79,97,26868
1.5934,0.3470,39.3200,79,97,26871
1.6422,0.3715,39.0900,79,97,26874
1.6471,0.3568,39.1900,79,97,26878
1.6569,0.3568,39.3500,79,97,26882
1.6764,0.3617,39.2800,79,97,26885
1.6862,0.3519,39.3200,79,97,26888
1.7253,0.3715,39.0900,79,97,26892
1.7107,0.3617,39.1900,79,97,26895
1.7155,0.3519,39.3800,79,97,26898
1.7302,0.3617,39.2800,79,97,26901
1.7302,0.3519,39.2800,79,97,26905
1.7644,0.3617,39.1600,79,97,26908
1.7449,0.3568,39.3500,79,97,26911
1.7546,0.3519,39.2200,79,97,26914
1.7742,0.3617,39.3500,79,97,26918
1.7595,0.3568,39.3800,79,97,26921
1.7889,0.3617,39.1600,79,97,26925
1.7742,0.3519,39.2200,79,97,26928
1.7644,0.3519,39.3500,79,97,26932
1.7791,0.3666,39.2500,79,97,26935
1.7644,0.3568,39.3800,79,97,26938
1.8035,0.3617,39.1200,79,97,26941
1.8426,0.3715,39.0600,78,97,26946
1.8084,0.3617,39.3200,78,97,26949
1.8133,0.3617,39.2800,78,97,26953
1.8280,0.3568,39.3500,78,97,26956
1.8328,0.3568,39.2200,78,97,26959
1.8915,0.3763,39.0900,78,97,26962
1.8573,0.3568,39.2500,78,97,26967
1.8475,0.3519,39.2800,78,97,26970
1.8622,0.3861,39.3200,78,97,26973
1.8622,0.3568,39.3500,78,97,26976
1.9159,0.3715,39.0600,78,97,26980
1.8768,0.3568,39.2500,78,97,26983
1.8817,0.3519,39.4400,78,97,26986
1.8817,0.3959,39.3200,78,97,26989
1.8866,0.3568,39.3500,78,97,26993
1.9550,0.3715,39.0600,78,97,26996
1.9159,0.3568,39.2800,78,97,26999
1.9257,0.3470,39.3200,78,97,27002
1.9648,0.3617,39.3200,78,97,27006
1.9746,0.3519,39.3500,78,97,27010
2.0039,0.3715,39.0600,78,97,27013
1.9746,0.3617,39.2500,78,97,27016
1.9648,0.3470,39.3500,78,97,27020
1.9746,0.3568,39.3200,78,97,27023
1.9648,0.3519,39.3500,78,97,27026
2.0186,0.3812,39.0600,78,97,27029
1.9795,0.3568,39.2800,78,97,27033
1.9697,0.3519,39.3800,78,97,27036
1.9697,0.3568,39.3200,78,97,27039
1.9697,0.3519,39.2800,78,97,27042
2.0235,0.3715,39.0300,78,97,27046
1.9746,0.3568,39.2800,78,97,27049
1.9746,0.3470,39.3200,78,97,27053
1.9795,0.3568,39.2800,78,97,27056
1.9648,0.3470,39.3200,78,97,27060
2.0186,0.4057,39.1200,78,97,27063
1.9746,0.3617,39.2200,78,97,27066
1.9501,0.3470,39.3800,78,97,27069
1.9404,0.3568,39.3200,78,97,27073
1.9159,0.3861,39.3200,78,97,27076
1.9501,0.3666,39.0300,78,97,27079
1.8866,0.3568,39.2800,78,97,27082
1.8475,0.3519,39.3500,78,97,27086
1.8231,0.3519,39.3200,78,97,27089
1.7889,0.3617,39.3200,78,97,27092
1.8084,0.3715,39.1200,78,97,27096
1.7351,0.3568,39.2500,78,97,27100
1.7107,0.3519,39.3500,78,97,27103
1.6862,0.3568,39.3200,78,97,27106
1.6569,0.3568,39.3200,78,97,27109
1.7204,0.3666,39.0600,78,97,27113
1.6422,0.3568,39.2200,78,97,27116
1.6178,0.3519,39.3200,78,97,27119
1.6129,0.3910,39.2800,78,97,27123
1.6031,0.3519,39.4100,78,97,27126
1.6422,0.3666,39.0600,78,97,27129
1.6031,0.3470,39.2500,78,97,27132
1.5934,0.3519,39.3200,78,97,27137
1.5982,0.3617,39.3200,78,97,27140
1.5982,0.3568,39.4100,78,97,27143
1.6471,0.3715,39.0600,78,97,27146
1.6129,0.3568,39.2800,78,97,27150
1.6129,0.3519,39.3200,78,97,27153
1.6325,0.3617,39.3500,78,97,27156
1.6325,0.3519,39.3200,78,97,27159
1.6862,0.4106,39.0600,78,97,27163
1.6667,0.3617,39.2200,78,97,27166
1.6618,0.3519,39.3200,78,97,27169
1.6716,0.3568,39.3500,78,97,27172
1.6813,0.3568,39.3200,78,97,27176
1.7595,0.3763,39.0900,78,97,27180
1.7009,0.3617,39.3200,78,97,27183
1.7009,0.3568,39.2800,78,97,27186
1.7107,0.3568,39.3200,78,97,27190
1.7058,0.3470,39.3500,78,97,27193
1.7693,0.3715,39.0600,78,97,27196
1.7302,0.3617,39.2800,78,97,27199
1.7400,0.3519,39.2800,78,97,27203
1.7498,0.3568,39.3200,78,97,27206
1.7400,0.3568,39.3200,78,97,27209
1.7937,0.3715,39.1200,78,97,27212
1.7644,0.3666,39.2500,78,97,27216
1.7498,0.3519,39.2800,78,97,27219
1.7498,0.3568,39.2800,78,97,27223
1.7400,0.3519,39.4400,78,97,27226
1.7937,0.3763,39.0600,78,97,27230
1.7546,0.3617,39.2500,78,97,27233
1.7449,0.3519,39.3500,78,97,27236
1.7498,0.3568,39.2800,78,97,27239
1.7498,0.3568,39.5100,78,97,27243
1.7937,0.3763,39.0900,78,97,27246
1.7498,0.3568,39.2500,78,97,27249
1.7693,0.3519,39.3200,78,97,27252
1.7449,0.3812,39.2800,78,97,27256
1.7351,0.3568,39.3200,78,97,27259
1.7840,0.3763,39.0900,78,97,27262
1.7498,0.3617,39.2200,78,97,27266
1.7302,0.3519,39.3200,78,97,27270
1.7400,0.3617,39.3200,78,97,27273
1.7302,0.3568,39.2200,78,97,27276
1.7742,0.3763,39.0600,78,97,27279
1.7351,0.3568,39.2800,78,97,27283
1.7253,0.3470,39.3200,78,97,27286
1.7400,0.3617,39.3200,78,97,27289
1.7204,0.3568,39.3800,78,97,27292
1.7742,0.3715,39.0600,78,97,27296
1.7351,0.3568,39.2800,78,97,27299
1.7302,0.3470,39.2800,78,97,27302
1.7449,0.3519,39.2800,78,97,27305
1.7400,0.3568,39.3200,78,97,27310
1.7937,0.3763,39.1600,78,97,27313
1.7595,0.3617,39.2500,78,97,27316
1.7644,0.3715,39.3200,78,97,27319
1.7546,0.3617,39.3200,78,97,27323
1.7498,0.3910,39.3200,78,97,27326
1.7937,0.3763,38.7700,78,97,27329
1.7595,0.3568,39.2500,78,97,27332
1.7498,0.3470,39.3500,78,97,27336
1.7498,0.3568,39.3200,78,97,27339
1.7449,0.3568,39.3200,78,97,27342
1.7937,0.3763,39.0600,78,97,27345
1.7498,0.3568,39.2800,78,97,27350
1.7498,0.3470,39.3200,78,97,27353
1.7889,0.3617,39.3200,78,97,27356
1.7840,0.3519,39.3800,78,97,27360
1.8035,0.3763,39.0900,78,97,27363
1.7693,0.3617,39.2500,78,97,27366
1.7546,0.3470,39.3200,78,97,27369
1.7644,0.3568,39.3200,78,97,27373
1.7595,0.3617,39.3800,78,97,27376
1.8133,0.3763,39.0600,78,97,27379
1.7791,0.3568,39.2800,78,97,27382
1.7693,0.3519,39.3200,78,97,27386
1.7742,0.3568,39.3200,78,97,27389
1.7791,0.3568,39.3500,78,97,27393
1.8182,0.3763,39.0600,78,97,27396
1.7742,0.3568,39.2500,78,97,27400
1.7791,0.3519,39.3200,78,97,27403
1.7840,0.3568,39.3200,78,97,27406
1.7644,0.3568,39.3200,78,97,27409
1.8231,0.3812,39.1200,78,97,27413
1.7889,0.3715,39.3200,78,97,27416
1.7791,0.3519,39.3500,78,97,27419
1.7889,0.3617,39.3200,78,97,27422
1.7986,0.3568,39.2500,78,97,27426
1.8671,0.3763,39.0900,78,97,27429
1.8475,0.3617,39.2500,78,97,27432
1.8524,0.3470,39.2800,78,97,27436
1.8573,0.3617,39.2800,78,97,27440
1.8573,0.3519,39.2200,78,97,27443
1.9110,0.3763,39.0600,78,97,27446
1.8719,0.3568,39.2800,78,97,27449
1.8768,0.3519,39.3200,78,97,27453
1.8964,0.3519,39.3200,78,97,27456
1.9110,0.3519,39.3500,78,97,27459
1.9550,0.3763,39.0000,78,97,27462
1.9208,0.3617,39.2500,78,97,27466
1.9062,0.3519,39.3500,78,97,27469
1.9306,0.3568,39.3200,78,97,27472
1.8964,0.3910,39.3200,78,97,27475
1.9453,0.3763,39.0600,78,97,27480
1.8915,0.3568,39.2500,78,97,27483
1.8573,0.3519,39.3200,78,97,27486
1.8671,0.3617,39.3200,78,97,27489
1.8133,0.3715,39.3500,78,97,27493
1.8426,0.3763,38.7400,78,97,27496
1.7840,0.3568,39.2800,78,97,27499
1.7546,0.3519,39.3200,78,97,27502
1.7546,0.3568,39.3200,78,97,27506
1.7253,0.3568,39.3500,78,97,27509
1.7693,0.3812,39.0900,78,97,27512
1.7302,0.3568,39.1600,78,97,27515
1.7155,0.3519,39.3200,78,97,27520
1.7107,0.3568,39.4100,78,97,27523
1.7058,0.3470,39.3800,78,97,27526
1.7498,0.3812,39.0600,78,97,27529
1.7107,0.3763,39.3200,78,97,27533
1.7107,0.3519,39.4100,78,97,27536
1.7155,0.3568,39.3200,78,97,27539
1.7155,0.3617,39.3500,78,97,27542
1.7742,0.3715,39.0300,78,97,27546
1.7302,0.3519,39.2500,78,97,27549
1.7351,0.3519,39.2200,78,97,27552
1.7449,0.3568,39.3200,78,97,27555
1.7644,0.3617,39.3800,78,97,27559
1.7840,0.3666,39.3200,78,97,27563
1.8426,0.3666,39.1600,78,97,27567
1.8573,0.3763,39.2200,78,97,27570
1.9599,0.3568,39.2800,78,97,27573
2.1017,0.3568,39.3200,78,97,27576
2.3167,0.3568,39.3500,78,97,27580
2.6686,0.3666,39.1600,78,97,27583
2.9912,0.3568,38.9600,78,97,27586
3.3529,0.3568,39.2200,78,97,27589
3.5875,0.3568,39.3500,78,97,27593
3.6755,0.3568,39.3500,78,97,27596
3.6559,0.3617,39.2200,78,97,27599
3.3529,0.3666,39.4100,78,97,27602
2.9326,0.3568,39.2500,78,97,27607
2.3900,0.3568,39.3500,78,97,27610
1.9062,0.3470,39.3200,78,97,27613
1.5396,0.3715,39.1600,78,97,27616
1.2463,0.3568,39.3500,78,97,27620
1.0899,0.3568,39.2200,78,97,27623
1.0068,0.3568,39.3200,78,97,27626
0.9922,0.3617,39.3500,78,97,27629
1.0508,0.3666,39.1600,78,97,27633
1.0997,0.3568,39.3200,78,97,27636
1.2268,0.3519,39.2500,78,97,27639
1.2708,0.3568,39.3200,78,97,27642
1.3490,0.3568,39.2800,78,97,27646
1.4467,0.3666,39.2200,78,97,27650
1.4761,0.3568,39.3200,78,97,27653
1.5152,0.3568,39.2200,78,97,27656
1.5396,0.3568,39.3200,78,97,27660
1.5689,0.3617,39.3500,78,97,27663
1.6178,0.3568,39.1900,78,97,27666
1.6129,0.3617,39.2800,78,97,27669
1.6373,0.3568,38.7100,78,97,27673
1.6325,0.3568,39.3500,78,97,27676
1.6422,0.3470,39.3500,78,97,27679
1.6813,0.3959,39.1600,78,97,27682
1.6618,0.3666,39.2800,78,97,27686
1.6764,0.3568,39.3200,78,97,27689
1.6716,0.3568,39.3200,78,97,27693
1.6813,0.3568,39.3500,78,97,27696
1.7155,0.3666,39.2200,78,97,27700
1.6960,0.3617,39.3200,78,97,27703
1.7107,0.3568,39.2200,78,97,27706
1.6960,0.3812,39.3200,78,97,27710
1.6960,0.3568,39.3800,78,97,27713
1.7253,0.3666,39.1600,78,97,27716
1.7155,0.3568,39.5700,78,97,27719
1.7351,0.3470,39.1900,78,97,27723
1.7253,0.3568,39.3200,78,97,27726
1.7253,0.3812,39.3200,78,97,27729
1.7546,0.3715,39.1600,78,97,27732
1.7351,0.3568,39.2800,78,97,27737
1.7546,0.3568,39.2800,78,97,27740
1.7498,0.3470,39.3200,78,97,27743
1.7595,0.3470,39.3500,78,97,27746
1.7986,0.3666,39.2500,78,97,27750
1.7791,0.3666,39.2800,78,97,27753
1.7937,0.3617,39.5100,78,97,27756
1.7791,0.3568,39.2800,78,97,27759
1.7889,0.3568,39.3500,78,97,27763
1.8280,0.3666,39.1900,78,97,27766
1.8084,0.3568,39.3200,78,97,27769
1.8280,0.3568,39.2200,78,97,27772
1.8182,0.3568,39.3500,78,97,27777
1.8280,0.3568,39.3500,78,97,27780
1.8573,0.3617,39.1900,78,97,27783
1.8377,0.3568,39.3200,78,97,27786
1.8622,0.3666,39.2200,78,97,27790
1.8524,0.3715,39.3500,78,97,27793
1.8622,0.3568,39.3800,78,97,27796
1.9062,0.3666,39.2800,78,97,27799
1.9013,0.3568,39.3200,78,97,27803
1.9257,0.3617,39.2200,78,97,27806
1.9257,0.3470,39.3500,78,97,27809
1.9355,0.3470,39.2800,78,97,27812
1.9795,0.3666,39.1200,78,97,27816
1.9501,0.3617,39.2800,78,97,27820
1.9697,0.3568,39.1900,78,97,27823
1.9501,0.3617,39.3200,78,97,27826
1.9550,0.3519,39.3200,78,97,27830
1.9892,0.3715,39.1900,78,97,27833
1.9648,0.3568,39.2800,78,97,27836
1.9844,0.3568,39.2500,78,97,27839
1.9648,0.3568,39.3500,78,97,27843
1.9648,0.3470,39.3500,78,97,27846
2.0088,0.3715,39.2500,78,97,27849
1.9892,0.3568,39.3200,78,97,27852
2.0039,0.3470,39.2200,78,97,27856
1.9844,0.3617,39.3500,78,97,27859
1.9844,0.3617,39.3200,78,97,27863
2.0137,0.3617,39.1600,78,97,27866
1.9648,0.3568,39.3200,78,97,27870
1.9648,0.3568,39.2200,78,97,27873
1.9257,0.3568,39.3500,78,97,27876
1.9013,0.3617,39.3200,78,97,27879
1.9013,0.3715,39.1600,78,97,27883
1.8475,0.3861,39.3800,78,97,27886
1.8328,0.3568,39.1200,78,97,27889
1.7840,0.3568,39.3200,78,97,27892
1.7498,0.3568,39.3500,78,97,27896
1.7840,0.3568,39.2200,78,97,27899
1.7058,0.3568,39.2800,78,97,27902
1.6911,0.3568,39.2200,78,97,27906
1.6471,0.3568,39.3500,78,97,27910
1.6276,0.3568,39.3500,78,97,27913
1.6471,0.3715,39.1600,78,97,27916
1.6129,0.3568,39.3200,78,97,27920
1.6080,0.3519,39.2200,78,97,27923
1.5885,0.3568,39.4800,78,97,27926
1.5885,0.3568,39.3500,78,97,27929
1.6129,0.3666,39.1900,78,97,27932
1.5885,0.3470,39.3200,78,97,27936
1.5982,0.3568,39.2800,78,97,27939
1.5885,0.3568,39.3200,78,97,27942
1.5934,0.3568,39.3500,78,97,27947
1.6276,0.3666,39.2500,78,97,27950
1.6520,0.3568,39.2500,78,97,27953
1.6276,0.3568,39.2500,78,97,27956
1.6178,0.3617,39.2800,78,97,27960
1.6276,0.3568,39.3200,78,97,27963
1.6764,0.3666,39.1600,78,97,27966
1.6618,0.3568,39.3200,78,97,27969
1.6862,0.3568,39.2200,78,97,27973
1.6911,0.3519,39.3200,78,97,27976
1.6813,0.3715,39.3500,78,97,27979
1.7351,0.3666,39.1600,78,97,27982
1.7058,0.3715,39.2800,78,97,27986
1.7302,0.3568,39.2200,78,97,27990
1.7155,0.3568,39.3500,78,97,27993
1.7204,0.3568,39.3500,78,97,27996
1.7498,0.3666,39.2500,78,97,28000
1.7400,0.3617,39.3200,78,97,28003
1.7595,0.3617,39.2200,78,97,28006
1.7449,0.3470,39.3800,78,97,28009
1.7498,0.3568,39.3500,78,97,28013
1.7840,0.3666,39.1600,78,97,28016
1.7595,0.3568,39.3200,78,97,28019
1.7693,0.3617,39.2200,78,97,28022
1.7595,0.3617,39.3200,78,97,28026
1.7595,0.3568,39.3800,78,97,28029
1.7840,0.3617,39.1600,78,97,28033
1.7595,0.3568,39.3500,78,97,28036
1.7791,0.3519,39.2200,78,97,28040
1.7498,0.3568,39.3500,78,97,28043
1.7498,0.3470,39.3800,78,97,28046
1.7742,0.3666,39.2500,78,97,28049
1.7595,0.3470,39.3500,78,97,28053
1.7742,0.3666,39.3200,78,97,28056
1.7498,0.3568,39.3500,78,97,28059
1.7498,0.3568,39.3500,78,97,28062
1.7791,0.3666,39.1600,78,97,28066
1.7498,0.3568,39.4100,78,97,28069
1.7644,0.3617,39.2200,78,97,28072
1.7351,0.3568,39.3200,78,97,28076
1.7400,0.3568,39.3500,78,97,28080
1.7693,0.3666,39.2200,78,97,28083
1.7498,0.3568,39.3200,78,97,28086
1.7693,0.3617,39.2200,78,97,28089
1.7449,0.3568,39.3500,78,97,28093
1.7400,0.3568,39.3500,78,97,28096
1.7644,0.3617,39.2200,78,97,28099
1.7449,0.3568,39.2800,78,97,28102
1.7546,0.3617,39.2200,78,97,28106
1.7449,0.3568,39.3500,78,97,28109
1.7546,0.3568,39.3800,78,97,28112
1.7840,0.3666,39.1600,78,97,28116
1.7742,0.3568,39.3200,78,97,28120
1.7840,0.3617,39.2200,78,97,28123
1.7644,0.3568,39.2800,78,97,28126
1.7693,0.3568,39.3500,78,97,28130
1.7937,0.3617,39.2200,78,97,28133
1.7693,0.3568,39.3200,78,97,28136
1.7840,0.3617,39.2200,78,97,28139
1.7644,0.3568,39.4100,78,97,28143
1.7644,0.3568,39.2500,78,97,28146
1.7937,0.3666,39.2800,78,97,28149
1.7742,0.3568,39.3200,78,97,28152
1.7889,0.3568,39.2200,78,97,28156
1.7693,0.3568,39.3500,78,97,28160
1.7693,0.3666,39.3200,78,97,28163
1.8035,0.3666,39.0600,77,97,28166
1.7693,0.3470,39.2800,77,97,28170
1.7595,0.3519,39.3500,77,97,28173
1.7840,0.3568,39.1200,77,97,28176
1.7546,0.3568,38.5800,77,97,28180
1.7742,0.3568,39.3500,77,97,28183
1.7937,0.3568,39.2800,77,97,28186
1.7791,0.3715,39.3800,77,97,28189
1.8035,0.3568,39.1200,77,97,28193
1.7791,0.3568,39.2500,77,97,28196
1.7742,0.3568,39.3500,77,97,28199
1.8035,0.3666,39.2200,77,97,28204
1.8084,0.3568,39.3200,77,97,28207
1.8084,0.3617,39.2500,77,97,28210
1.7840,0.3519,39.3500,77,97,28213
1.7889,0.3568,39.3500,77,97,28217
1.7986,0.3617,39.2500,77,97,28220
1.7840,0.3617,39.3200,77,97,28223
1.8084,0.3568,39.1600,77,97,28226
1.7840,0.3568,39.3200,77,97,28230
1.7937,0.3568,39.5100,77,97,28233
1.8084,0.3568,39.2800,77,97,28236
1.8182,0.3568,39.3500,77,97,28239
1.8280,0.3519,39.1900,77,97,28243
1.8035,0.3959,39.3500,77,97,28247
1.8084,0.3568,39.3500,77,97,28250
1.8280,0.3666,39.2200,77,97,28253
1.8084,0.3568,39.3200,77,97,28257
1.8231,0.3617,39.1900,77,97,28260
1.7937,0.3568,39.2500,77,97,28263
1.7986,0.3568,39.5700,77,97,28266
1.8133,0.3617,39.3200,77,97,28270
1.8084,0.3568,39.3500,77,97,28273
1.8377,0.3568,39.1900,77,97,28276
1.8280,0.3519,39.3500,77,97,28279
1.8377,0.3519,39.3200,77,97,28283
1.8524,0.3568,39.4800,77,97,28286
1.8475,0.3568,39.3200,77,97,28290
1.8768,0.3568,39.1900,77,97,28293
1.8475,0.3568,39.3500,77,97,28297
1.8475,0.3568,39.4400,77,97,28300
1.8915,0.3617,39.2500,77,97,28303
1.9013,0.3519,39.3200,77,97,28306
1.9110,0.3568,39.1600,77,97,28310
1.8915,0.3519,39.3200,77,97,28313
1.8964,0.3568,39.3500,77,97,28316
1.9013,0.3617,39.2800,77,97,28319
1.9208,0.3617,39.3200,77,97,28323
1.9013,0.3519,39.3200,77,97,28326
1.8671,0.3568,39.0600,77,97,28329
1.8573,0.3568,39.3500,77,97,28333
1.8524,0.3568,39.2800,77,97,28337
1.8182,0.3519,39.3200,77,97,28340
1.8231,0.3617,39.1600,77,97,28343
1.7791,0.3519,39.1900,77,97,28346
1.7693,0.3617,39.3200,77,97,28350
1.7791,0.3617,39.5400,77,97,28353
1.7400,0.3568,39.4100,77,97,28356
1.7498,0.3568,39.1900,77,97,28359
1.7155,0.3617,39.2800,77,97,28363
1.7058,0.3763,39.3200,77,97,28366
1.7155,0.3568,39.2500,77,97,28369
1.7058,0.3568,39.4100,77,97,28372
1.7302,0.3568,39.1900,77,97,28377
1.7351,0.3568,39.3200,77,97,28380
1.6960,0.3519,39.3500,77,97,28383
1.7107,0.3568,39.4100,77,97,28386
1.7058,0.3568,39.3500,77,97,28390
1.7351,0.3568,39.1900,77,97,28393
1.7155,0.3568,39.3500,77,97,28396
1.7253,0.3470,39.3200,77,97,28399
1.7498,0.3666,39.3200,77,97,28403
1.7302,0.3568,39.4100,77,97,28406
1.7595,0.3470,39.1900,77,97,28409
1.7351,0.3617,39.2800,77,97,28412
1.7400,0.3568,39.3200,77,97,28417
1.7546,0.3617,39.2500,77,97,28420
1.7546,0.3568,39.3800,77,97,28423
1.7937,0.3568,39.2200,77,97,28427
1.7791,0.3617,39.3200,77,97,28430
1.8084,0.3519,39.3500,77,97,28433
1.8817,0.3568,39.2200,77,97,28436
1.9941,0.3568,39.3500,77,97,28440
2.2092,0.3568,39.1600,77,97,28443
2.4438,0.3617,39.3200,77,97,28446
2.7859,0.3617,39.3200,77,97,28449
3.1720,0.3617,39.2200,77,97,28453
3.4262,0.3568,39.2800,77,97,28456
3.6364,0.3568,39.1900,77,97,28460
3.5973,0.3519,39.3200,77,97,28463
3.4066,0.3519,39.3500,77,97,28467
3.0645,0.3666,39.3200,77,97,28470
2.5611,0.3568,39.4100,77,97,28473
2.0968,0.3568,39.1900,77,97,28476
1.6422,0.3568,39.3500,77,97,28480
1.3245,0.3519,39.3200,77,97,28483
1.1241,0.3568,39.2800,77,97,28486
1.0068,0.3568,39.3500,77,97,28489
0.9873,0.3519,39.1900,77,97,28493
0.9824,0.3568,39.3200,77,97,28496
1.0459,0.3568,39.4400,77,97,28499
1.1486,0.3666,39.2800,77,97,28503
1.2072,0.3568,39.3500,77,97,28507
1.3539,0.3519,39.1900,77,97,28510
1.3783,0.3519,39.3200,77,97,28513
1.4418,0.3568,39.6000,77,97,28516
1.4907,0.3617,39.4800,77,97,28520
1.5152,0.3568,39.3500,77,97,28523
1.5640,0.3568,39.2200,77,97,28526
1.5494,0.3519,39.3200,77,97,28529
1.5689,0.3763,39.3200,77,97,28533
1.5934,0.3568,39.3800,77,97,28536
1.5982,0.3568,39.3500,77,97,28539
1.6325,0.3470,39.2200,77,97,28542
1.6227,0.3568,39.3500,77,97,28547
1.6325,0.3617,39.3200,77,97,28550
1.6618,0.3666,39.2200,77,97,28553
1.6471,0.3519,39.3500,77,97,28556
1.6764,0.3568,39.1200,77,97,28560
1.6569,0.3519,39.2800,77,97,28563
1.6960,0.3568,39.3500,77,97,28566
1.6960,0.3568,39.2800,77,97,28569
1.6764,0.3715,39.3800,77,97,28573
1.7009,0.3568,39.1900,77,97,28576
1.6813,0.3568,39.3200,77,97,28579
1.6862,0.3470,39.3500,77,97,28582
1.6960,0.3617,39.2500,77,97,28587
1.6911,0.3568,39.3200,77,97,28590
1.7204,0.3617,39.2200,77,97,28593
1.6960,0.3568,39.3500,77,97,28596
1.7107,0.3568,39.3500,77,97,28600
1.7351,0.3617,39.2500,77,97,28603
1.7204,0.3519,39.3200,77,97,28606
1.7498,0.3568,39.2200,77,97,28609
1.7302,0.3519,39.3800,77,97,28613
1.7400,0.3568,39.3200,77,97,28616
1.7449,0.3470,39.2500,77,97,28619
1.7498,0.3568,39.3200,77,97,28622
1.7889,0.3568,39.1600,77,97,28626
1.7742,0.3568,39.3200,77,97,28630
1.7889,0.3568,39.3500,77,97,28633
1.8084,0.3568,39.2500,77,97,28636
1.8035,0.3568,39.3500,77,97,28640
1.8328,0.3568,39.2200,77,97,28643
1.8084,0.3568,38.6200,77,97,28646
1.8133,0.3568,39.3500,77,97,28649
1.8426,0.3568,39.2200,77,97,28653
1.8280,0.3519,39.3500,77,97,28656
1.8622,0.3568,39.2200,77,97,28659
1.8377,0.3519,39.2800,77,97,28662
1.8573,0.3568,39.3500,77,97,28666
1.8768,0.3617,39.2800,77,97,28669
1.8719,0.3617,39.3500,77,97,28673
1.9159,0.3568,39.2500,77,97,28676
1.9013,0.3568,39.3200,77,97,28680
1.9159,0.3568,39.3200,77,97,28683
1.9355,0.3519,39.3200,77,97,28686
1.9257,0.3715,39.3500,77,97,28689
1.9550,0.3568,39.1900,77,97,28693
1.9257,0.3568,39.4800,77,97,28696
1.9306,0.3568,39.3500,77,97,28699
1.9550,0.3470,39.2200,77,97,28702
1.9306,0.3666,39.3200,77,97,28706
1.9648,0.3763,39.2200,77,97,28709
1.9404,0.3519,39.3200,77,97,28712
1.9453,0.3470,39.3500,77,97,28716
1.9599,0.3617,39.2500,77,97,28720
1.9697,0.3617,39.3500,77,97,28723
1.9795,0.3666,39.2200,77,97,28726
1.9453,0.3519,39.3800,77,97,28729
1.9404,0.3470,39.3200,77,97,28733
1.9746,0.3617,39.2800,77,97,28736
1.9110,0.3617,39.3500,77,97,28739
1.9208,0.3568,39.2200,77,97,28742
1.8671,0.3568,39.3800,77,97,28746
1.8426,0.3470,39.3500,77,97,28749
1.8475,0.3666,39.2200,77,97,28752
1.8182,0.3568,39.3800,77,97,28756
1.7986,0.3666,39.1900,77,97,28760
1.7449,0.3519,39.2200,77,97,28763
1.7253,0.3568,39.4400,77,97,28766
1.7058,0.3617,39.2800,77,97,28770
1.6667,0.3470,39.3500,77,97,28773
1.6618,0.3568,39.2200,77,97,28776
1.6080,0.3470,39.1200,77,97,28779
1.5396,0.3568,39.3200,77,97,28783
1.5396,0.3568,39.3500,77,97,28786
1.5543,0.3666,39.2200,77,97,28789
1.5298,0.3568,39.3500,77,97,28793
1.5689,0.3568,39.1200,77,97,28796
1.5445,0.3617,39.2200,77,97,28800
1.5396,0.3519,39.6000,77,97,28803
1.5591,0.3617,39.2800,77,97,28807
1.5591,0.3568,39.3500,77,97,28810
1.5934,0.3715,39.1200,77,97,28813
1.5836,0.3568,39.3200,77,97,28816
1.5885,0.3617,39.3500,77,97,28820
1.6080,0.3617,39.2800,77,97,28823
1.6031,0.3568,39.3500,77,97,28826
1.6667,0.3715,39.1200,77,97,28829
1.6422,0.3470,39.3200,77,97,28833
1.6276,0.3470,39.3800,77,97,28836
1.6520,0.3568,39.2800,77,97,28839
1.6422,0.3568,39.4400,77,97,28843
1.6813,0.3666,39.1200,77,97,28847
1.6667,0.3617,39.2500,77,97,28850
1.6667,0.3470,39.3500,77,97,28853
1.6960,0.3568,39.2800,77,97,28856
1.6764,0.3568,39.3200,77,97,28860
1.7204,0.3666,39.0600,77,97,28863
1.6862,0.3568,39.3200,77,97,28866
1.7058,0.3519,39.3500,77,97,28869
1.7009,0.3812,39.2500,77,97,28873
1.6960,0.3568,39.3200,77,97,28876
1.7204,0.3568,39.1200,77,97,28879
1.7107,0.3519,39.3500,77,97,28882
1.6813,0.3568,39.3500,77,97,28887
1.7009,0.3617,39.2800,77,97,28890
1.6813,0.3568,39.3500,77,97,28893
1.7204,0.3715,39.1200,77,97,28896
1.7009,0.3568,39.2500,77,97,28900
1.6960,0.3568,39.3500,77,97,28903
1.7107,0.3617,39.2800,77,97,28906
1.6911,0.3568,39.3200,77,97,28909
1.7204,0.3568,39.1200,77,97,28913
1.6911,0.3763,39.3200,77,97,28916
1.6911,0.3568,39.4100,77,97,28919
1.7009,0.3617,39.3200,77,97,28922
1.6862,0.3666,39.3500,77,97,28926
1.7107,0.3617,39.0900,77,97,28930
1.6764,0.3568,39.3200,77,97,28933
1.6862,0.3568,39.3200,77,97,28936
1.7058,0.3666,39.3200,77,97,28940
1.6911,0.3568,39.3500,77,97,28943
1.7204,0.3568,39.1200,77,97,28946
1.7058,0.3568,39.3500,77,97,28949
1.7009,0.3568,39.3500,77,97,28953
1.7107,0.3617,39.2800,77,97,28956
1.7253,0.3519,39.3200,77,97,28959
1.7400,0.3666,39.1200,77,97,28962
1.7107,0.3568,39.2500,77,97,28966
1.7155,0.3568,39.3500,77,97,28969
1.7155,0.3617,39.2800,77,97,28973
1.7107,0.3568,39.3800,77,97,28976
1.7400,0.3617,39.2500,77,97,28980
1.7107,0.3568,39.3500,77,97,28983
1.7204,0.3568,39.3800,77,97,28986
1.7351,0.3715,39.1900,77,97,28989
1.7498,0.3617,39.3500,77,97,28993
1.7644,0.3617,39.1200,77,97,28996
1.7302,0.3959,39.2200,77,97,28999
1.7302,0.3568,39.3200,77,97,29002
1.7400,0.3617,39.1900,77,97,29006
1.7400,0.3470,39.3500,77,97,29009
1.7644,0.3666,39.1600,77,97,29012
1.7351,0.3568,39.3500,77,97,29017
1.7351,0.3568,39.4400,77,97,29020
1.7498,0.3568,39.2800,77,97,29023
1.7351,0.3568,39.3500,77,97,29026
1.7742,0.3910,39.1600,77,97,29030
1.7595,0.3568,39.3800,77,97,29033
1.7546,0.3666,39.3500,77,97,29036
1.7840,0.3617,39.4400,77,97,29039
1.7693,0.3519,38.5500,77,97,29043
1.8084,0.3470,39.1200,77,97,29046
1.7986,0.3617,39.2500,77,97,29049
1.7986,0.3568,39.3200,77,97,29052
1.8133,0.3715,39.2800,77,97,29057
1.8035,0.3568,39.2200,77,97,29060
1.8377,0.3715,39.1200,77,97,29063
1.8231,0.3470,39.2800,77,97,29066
1.8328,0.3861,39.3200,77,97,29070
1.8573,0.3617,39.1600,77,97,29073
1.8573,0.3568,39.3800,77,97,29076
1.8915,0.3617,39.1200,77,97,29079
1.8671,0.3568,39.3500,77,97,29083
1.8719,0.3568,39.3500,77,97,29086
1.8768,0.3763,39.2500,77,97,29089
1.8426,0.3519,39.3500,77,97,29092
1.8622,0.4008,38.7100,77,97,29096
1.8231,0.3568,39.3200,77,97,29100
1.7840,0.3568,39.3500,77,97,29103
1.7742,0.3617,39.3200,77,97,29106
1.7498,0.3470,39.3500,77,97,29110
1.7644,0.3910,39.1600,77,97,29113
1.7204,0.3910,39.3800,77,97,29116
1.7155,0.3568,39.3200,77,97,29119
1.7107,0.3617,39.3500,77,97,29123
1.6862,0.3568,39.3500,77,97,29126
1.7058,0.3568,39.2200,77,97,29129
1.6716,0.3617,39.3500,77,97,29132
1.6764,0.3519,39.2800,77,97,29136
1.6960,0.3666,39.3200,77,97,29139
1.6813,0.3568,39.4100,77,97,29143
1.7204,0.3617,39.1600,77,97,29146
1.7107,0.3568,39.2200,77,97,29150
1.6911,0.3568,39.3500,77,97,29153
1.7058,0.3715,39.2800,77,97,29156
1.6960,0.3568,39.4100,77,97,29159
1.7253,0.3617,39.1200,77,97,29163
1.6960,0.3568,39.3200,77,97,29166
1.6960,0.3519,39.4400,77,97,29169
1.7058,0.3617,39.2800,77,97,29172
1.6960,0.3568,39.3500,77,97,29176
1.7498,0.3568,39.1200,77,97,29179
1.6960,0.3470,39.4100,77,97,29182
1.7058,0.3568,39.2500,77,97,29186
1.7302,0.3666,39.2800,77,97,29190
1.7204,0.3568,39.3500,77,97,29193
1.7742,0.3617,39.1200,77,97,29196
1.7791,0.3519,39.2200,77,97,29199
1.8377,0.3568,39.4100,77,97,29203
1.9697,0.3617,39.2500,77,97,29206
2.1408,0.3568,39.3500,77,97,29209
2.4291,0.3617,39.1900,77,97,29212
2.7028,0.3519,39.3200,77,97,29216
3.0254,0.3568,39.1900,77,97,29219
3.3236,0.3617,39.2800,77,97,29222
3.4409,0.3568,39.3500,77,97,29225
3.4800,0.3812,39.1600,77,97,29230
3.2502,0.3568,39.2800,77,97,29233
2.9179,0.3568,39.3500,77,97,29236
2.5024,0.3617,39.2500,77,97,29239
2.0283,0.3519,39.3500,77,97,29243
1.6471,0.3617,39.1600,77,97,29246
1.3294,0.3568,39.2800,77,97,29249
1.1339,0.3617,39.3800,77,97,29252
1.0215,0.3617,39.2800,77,97,29256
0.9677,0.3617,39.3500,77,97,29259
0.9775,0.3617,39.2200,77,97,29262
1.0068,0.3568,39.3200,77,97,29265
1.0802,0.3519,39.4400,77,97,29270
1.1681,0.3861,39.3200,77,97,29273
1.2561,0.3568,39.4800,77,97,29276
1.3636,0.3617,39.1200,77,97,29279
1.4174,0.3568,39.3500,77,97,29283
1.4761,0.3617,39.3500,77,97,29286
1.5347,0.3568,39.3800,77,97,29289
1.5494,0.3519,39.3500,77,97,29292
1.6031,0.3617,39.1200,77,97,29296
1.6080,0.3568,39.2500,77,97,29299
1.6422,0.3568,39.3500,77,97,29302
1.6520,0.3617,39.2500,77,97,29305
1.6569,0.3568,39.3500,77,97,29309
1.6960,0.3617,39.1200,77,97,29313
1.6764,0.3568,39.3200,77,97,29316
1.6862,0.3568,39.3500,77,97,29319
1.6911,0.3617,39.2800,77,97,29323
1.6960,0.3617,39.3500,77,97,29326
1.7253,0.3617,38.5200,77,97,29329
1.7058,0.3568,39.3500,77,97,29332
1.7058,0.3568,39.3500,77,97,29336
1.7449,0.3666,39.2500,77,97,29339
1.7204,0.3519,39.4400,77,97,29342
1.7546,0.3617,39.1600,77,97,29346
1.7449,0.3568,39.2500,77,97,29349
1.7449,0.3568,39.3800,77,97,29352
1.7546,0.3617,39.2500,77,97,29356
1.7498,0.3470,39.3200,77,97,29360
1.7840,0.3519,39.1600,77,97,29363
1.7546,0.3910,39.2800,77,97,29366
1.7546,0.3568,39.4400,77,97,29369
1.7791,0.3617,39.2500,77,97,29373
1.7693,0.3519,39.3500,77,97,29376
1.8084,0.3568,39.1200,77,97,29379
1.7937,0.3617,39.3200,77,97,29382
1.8035,0.3568,39.3500,77,97,29386
1.8280,0.3617,39.3500,77,97,29389
1.8622,0.3568,39.3500,77,97,29392
1.8328,0.3617,39.3500,77,97,29396
1.8915,0.3666,39.1600,77,97,29400
1.8573,0.3861,39.3200,77,97,29403
1.8671,0.3568,39.4100,77,97,29407
1.8866,0.3568,39.3200,77,97,29410
1.8915,0.3470,39.3500,77,97,29413
1.9453,0.3861,39.0600,77,97,29416
1.9062,0.3666,39.2800,77,97,29420
1.9110,0.3568,39.4100,77,97,29423
1.9257,0.3568,39.3200,77,97,29426
1.9208,0.3568,39.3500,77,97,29429
1.9844,0.3666,39.0600,77,97,29433
1.9550,0.3568,39.2500,77,97,29436
1.9501,0.3568,39.3800,77,97,29440
1.9599,0.3568,39.3500,77,97,29443
1.9648,0.3470,39.3500,77,97,29447
2.0186,0.3715,39.0300,77,97,29450
1.9746,0.3715,39.2800,77,97,29453
1.9795,0.3568,39.4400,77,97,29456
1.9892,0.3617,39.2500,77,97,29460
1.9892,0.3568,39.3500,77,97,29463
2.0430,0.3715,39.0600,77,97,29466
1.9892,0.3617,39.3800,77,97,29469
1.9892,0.3568,39.4100,77,97,29473
1.9941,0.3568,39.3200,77,97,29476
1.9844,0.3568,39.3500,77,97,29479
2.0332,0.3666,39.0600,77,97,29483
1.9844,0.3715,39.2500,77,97,29487
1.9501,0.3568,39.3500,77,97,29490
1.9501,0.3617,39.3800,77,97,29493
1.9306,0.3568,39.3500,77,97,29496
1.9599,0.3763,39.0600,77,97,29500
1.8964,0.3519,39.3200,77,97,29503
1.8719,0.3568,39.2200,77,97,29506
1.8524,0.3617,39.3200,77,97,29509
1.8182,0.3568,39.3500,77,97,29513
1.8328,0.3715,39.0900,77,97,29516
1.7644,0.3519,39.2800,77,97,29519
1.7449,0.3617,39.4100,77,97,29522
1.7302,0.3617,39.4100,77,97,29527
1.7009,0.3568,39.3500,77,97,29530
1.7253,0.3763,39.0600,77,97,29533
1.6813,0.3666,39.2500,77,97,29536
1.6520,0.3568,39.3500,77,97,29540
1.6471,0.3617,39.3500,77,97,29543
1.6422,0.3568,39.3500,77,97,29546
1.6813,0.3763,39.0600,77,97,29549
1.6422,0.3568,39.2800,77,97,29553
1.6471,0.3568,39.3500,77,97,29556
1.6520,0.3568,39.3800,77,97,29559
1.6471,0.3568,39.3500,77,97,29562
1.6862,0.3715,39.0900,77,97,29566
1.6422,0.3519,39.3200,77,97,29570
1.6520,0.3861,39.4800,77,97,29573
1.6716,0.3617,39.2800,77,97,29576
1.6667,0.3715,39.3500,77,97,29580
1.7204,0.3666,39.0900,77,97,29583
1.7058,0.3617,39.2200,77,97,29586
1.6960,0.3617,39.3500,77,97,29589
1.7058,0.3617,39.3200,77,97,29593
1.7058,0.3568,39.3500,77,97,29596
1.7546,0.3715,39.0600,77,97,29599
1.7155,0.3568,39.3200,77,97,29602
1.7302,0.3568,39.3800,77,97,29606
1.7351,0.3519,39.3200,77,97,29609
1.7351,0.3617,39.3500,77,97,29613
1.7889,0.3666,39.0600,77,97,29616
1.7449,0.3568,39.3200,77,97,29620
1.7595,0.3568,39.3500,77,97,29623
1.7693,0.3568,39.2800,77,97,29626
1.7595,0.3568,39.3800,77,97,29629
1.8084,0.3666,39.0600,77,97,29633
1.7937,0.3617,39.2800,77,97,29636
1.7644,0.4057,39.3500,77,97,29639
1.7693,0.3861,39.3200,77,97,29642
1.7595,0.3568,39.3500,77,97,29646
1.7986,0.3666,39.0600,77,97,29649
1.7595,0.3568,39.3200,77,97,29652
1.7498,0.3372,39.3500,77,97,29656
1.7546,0.3861,39.3200,77,97,29660
1.7498,0.3568,39.4400,77,97,29663
1.7937,0.3666,39.0900,77,97,29666
1.7449,0.3568,39.2800,77,97,29669
1.7449,0.3519,39.3500,77,97,29673
1.7498,0.3861,39.3500,77,97,29676
1.7302,0.3617,39.3500,77,97,29679
1.7791,0.3666,39.2800,77,97,29682
1.7498,0.3617,39.2500,77,97,29686
1.7400,0.3568,39.3500,77,97,29689
1.7400,0.3568,39.4400,77,97,29692
1.7302,0.3568,39.3500,77,97,29696
1.7791,0.3666,39.1200,77,97,29700
1.7351,0.3568,39.3800,77,97,29703
1.7351,0.3568,39.3800,77,97,29706
1.7449,0.3568,39.3200,77,97,29710
1.7400,0.3568,39.4400,77,97,29713
1.7791,0.3861,39.0300,77,97,29716
1.7351,0.3568,39.2800,77,97,29719
1.7400,0.3568,39.3500,77,97,29723
1.7449,0.3617,39.3200,77,97,29726
1.7400,0.3568,39.3500,77,97,29729
1.7791,0.3715,39.0900,77,97,29732
1.7449,0.3617,39.2200,77,97,29736
1.7253,0.3568,39.3500,77,97,29740
1.7302,0.3617,39.0600,77,97,29743
1.7204,0.3568,39.3500,77,97,29746
1.7791,0.3715,39.0600,77,97,29750
1.7400,0.3617,39.3200,77,97,29753
1.7498,0.3568,39.2800,77,97,29756
1.7644,0.3617,39.3500,77,97,29759
1.7693,0.3568,39.3500,77,97,29763
1.8280,0.3715,39.0600,77,97,29766
1.7986,0.3617,39.3200,77,97,29769
1.8084,0.3568,39.4800,77,97,29772
1.8231,0.3617,39.3800,77,97,29776
1.8133,0.3568,39.5100,77,97,29779
1.8719,0.3666,39.0600,77,97,29783
1.8573,0.3617,39.2500,77,97,29786
1.8475,0.3568,39.3500,77,97,29790
1.8622,0.3666,39.3200,77,97,29793
1.8671,0.3763,39.3800,77,97,29796
1.9257,0.3715,39.4100,77,97,29799
1.8866,0.3568,39.2500,77,97,29803
1.8964,0.3568,39.3500,77,97,29806
1.8964,0.3568,39.3200,77,97,29809
1.8964,0.3519,39.3200,77,97,29812
1.9110,0.3861,39.0300,77,97,29816
1.8475,0.3617,39.3200,77,97,29819
1.8328,0.3568,39.3500,77,97,29822
1.8182,0.3617,39.3200,77,97,29826
1.7840,0.3568,39.3500,77,97,29830
1.8475,0.3715,39.0600,77,97,29833
1.7644,0.3617,39.2500,77,97,29836
1.7400,0.3568,39.3800,77,97,29839
1.7302,0.3568,39.3500,77,97,29843
1.7498,0.3568,39.3200,77,97,29846
1.7546,0.3715,39.0900,77,97,29849
1.7058,0.3568,39.4100,77,97,29852
1.7058,0.3568,39.3500,77,97,29856
1.7302,0.3568,39.3500,77,97,29859
1.7107,0.3861,39.3500,77,97,29862
1.7546,0.3715,39.1600,77,97,29865
1.7204,0.3568,39.2800,77,97,29870
1.7253,0.3568,39.3500,77,97,29873
1.7351,0.3617,39.3200,77,97,29876
1.7253,0.3568,39.3500,77,97,29879
1.7791,0.3715,39.0600,77,97,29883
1.7498,0.3910,39.2500,77,97,29886
1.7351,0.3568,39.4100,77,97,29889
1.7400,0.3568,39.3800,77,97,29892
1.7449,0.3568,39.3800,77,97,29896
1.8035,0.3763,39.0600,77,97,29899
1.7693,0.3666,39.3200,77,97,29902
1.7840,0.3568,39.4400,77,97,29905
1.7986,0.3568,39.3200,77,97,29910
1.8084,0.3568,39.3500,77,97,29913
1.8671,0.3715,39.0300,77,97,29916
1.8475,0.3568,39.2800,77,97,29919
1.9013,0.3568,39.3800,77,97,29923
2.0186,0.3617,39.2800,77,97,29926
2.1750,0.3470,39.3500,77,97,29929
2.4731,0.3715,39.0600,77,97,29932
2.7517,0.3617,39.3200,77,97,29936
3.0645,0.3568,39.3800,77,97,29939
3.4066,0.3666,39.3200,77,97,29942
3.5386,0.3568,39.3500,77,97,29945
3.6559,0.3666,39.0900,77,97,29949
3.4164,0.3568,39.2800,77,97,29953
3.0792,0.3617,39.3500,77,97,29956
2.6344,0.3617,39.4400,77,97,29959
2.1554,0.3568,39.3500,77,97,29963
1.7791,0.3715,39.0900,77,97,29966
1.3930,0.3568,39.3200,77,97,29969
1.1877,0.3568,39.3800,77,97,29972
1.0753,0.3617,39.5400,77,97,29976
1.0215,0.3568,39.3500,77,97,29979
1.0411,0.3470,39.1200,77,97,29982
1.0802,0.3617,39.3200,77,97,29985
1.1486,0.3568,39.4800,77,97,29989
1.2463,0.3617,39.3200,77,97,29992
1.3294,0.3568,39.3500,77,97,29996
1.4467,0.3715,39.0900,77,97,29999
1.6667,0.3763,39.2500,77,97,30003
1.6471,0.3666,39.3200,77,97,30006
1.6667,0.3617,39.3500,77,97,30010
1.6764,0.3519,39.3500,77,97,30013
1.6862,0.3568,39.3500,77,97,30016
1.7449,0.4057,39.1600,77,97,30019
1.7253,0.3617,39.3500,77,97,30023
1.7253,0.3568,39.2800,77,97,30026
1.7351,0.3568,39.3500,77,97,30029
1.7449,0.3470,39.3500,77,97,30032
1.8084,0.3812,39.1900,77,97,30036
1.8035,0.3617,39.3200,77,97,30040
1.7791,0.3568,39.2500,77,97,30043
1.7791,0.3568,39.3500,77,97,30046
1.7791,0.3568,39.3500,77,97,30050
1.8280,0.3666,39.1600,77,97,30053
1.7840,0.3617,39.3200,77,97,30056
1.7840,0.3568,39.2200,77,97,30059
1.7840,0.3568,39.3500,77,97,30063
1.7889,0.3568,39.3500,77,97,30066
1.8377,0.3666,39.2200,77,97,30069
1.8084,0.3617,39.3200,77,97,30072
1.8035,0.3568,39.2200,77,97,30076
1.8035,0.3568,39.4400,77,97,30080
1.8035,0.3568,39.3800,77,97,30083
1.8573,0.3763,39.1600,77,97,30086
1.8280,0.3568,39.3200,77,97,30090
1.8280,0.3617,39.2500,77,97,30093
1.8328,0.3568,39.3500,77,97,30096
1.8377,0.3568,39.3200,77,97,30099
1.8866,0.3763,39.1900,77,97,30103
1.8524,0.3519,39.3200,77,97,30106
1.8622,0.3568,39.2800,77,97,30109
1.8671,0.3568,39.3500,77,97,30112
1.8719,0.3568,39.4800,77,97,30116
1.9208,0.3763,39.1900,77,97,30119
1.9013,0.3568,39.3200,77,97,30123
1.8915,0.3568,39.2800,77,97,30126
1.8915,0.3763,39.3500,77,97,30130
1.9013,0.3568,39.3500,77,97,30133
1.9648,0.3666,39.1600,77,97,30136
1.9306,0.3617,39.3200,77,97,30140
1.9355,0.3568,39.2800,77,97,30143
1.9355,0.3617,39.3500,77,97,30146
1.9453,0.3568,39.3500,77,97,30149
2.0039,0.3763,39.2200,77,97,30153
1.9648,0.3617,39.3200,77,97,30156
1.9697,0.3617,39.3200,77,97,30159
1.9844,0.3617,39.3200,77,97,30162
1.9648,0.3568,39.3800,77,97,30167
2.0137,0.3763,39.1900,77,97,30170
1.9795,0.3617,39.2800,77,97,30173
1.9697,0.3568,39.3200,77,97,30176
1.9648,0.3568,39.4100,77,97,30180
1.9648,0.3568,39.3500,77,97,30183
2.0137,0.3666,39.1600,77,97,30186
1.9746,0.3617,39.2800,77,97,30189
1.9746,0.3617,39.2800,77,97,30193
1.9648,0.3666,39.3500,77,97,30196
1.9599,0.3568,39.1900,77,97,30199
1.9941,0.3715,39.2200,77,97,30202
1.9453,0.3568,39.4100,77,97,30206
1.9355,0.3568,39.2500,77,97,30210
1.9062,0.3568,39.3500,77,97,30213
1.8817,0.3519,39.3500,77,97,30216
1.9062,0.3763,39.1900,77,97,30220
1.8524,0.3617,39.4100,77,97,30223
1.8231,0.3568,39.2500,77,97,30226
1.7986,0.3568,39.3500,77,97,30229
1.7693,0.3568,39.3500,77,97,30233
1.7840,0.3617,39.1600,77,97,30236
1.7155,0.3568,39.3200,77,97,30239
1.6960,0.3568,39.2200,77,97,30242
1.6667,0.3568,38.5200,77,97,30246
1.6520,0.3568,39.3800,77,97,30249
1.6667,0.3666,39.1900,77,97,30253
1.6227,0.3568,39.3200,77,97,30256
1.6080,0.3568,39.2800,77,97,30260
1.5885,0.3568,39.3500,77,97,30263
1.5689,0.3568,39.3200,77,97,30266
1.6031,0.3715,39.1900,77,97,30269
1.5787,0.3568,39.3200,77,97,30273
1.5738,0.3568,39.3800,77,97,30276
1.5689,0.3568,39.5700,77,97,30279
1.5836,0.3568,39.3500,77,97,30282
1.6178,0.3763,39.1900,77,97,30286
1.6080,0.3617,39.3200,77,97,30289
1.5982,0.3568,39.2500,77,97,30292
1.5934,0.3568,39.3500,77,97,30297
1.6031,0.3568,39.3500,77,97,30300
1.6471,0.3715,39.2200,77,97,30303
1.6569,0.3568,39.3200,77,97,30306
1.6422,0.3519,39.2500,77,97,30310
1.6422,0.3568,39.3800,77,97,30313
1.6520,0.3568,39.3800,77,97,30316
1.6960,0.3715,39.2200,77,97,30319
1.6813,0.3470,39.2800,77,97,30323
1.6813,0.3568,39.2500,77,97,30326
1.6862,0.3568,39.3500,77,97,30329
1.6862,0.3470,39.3500,77,97,30332
1.7302,0.3666,39.2200,77,97,30337
1.7058,0.3617,39.4400,77,97,30340
1.7204,0.3568,39.2800,77,97,30343
1.7400,0.3568,39.3800,77,97,30346
1.7253,0.3568,39.3800,77,97,30350
1.7742,0.3666,39.2200,77,97,30353
1.7400,0.3568,39.3500,77,97,30356
1.7498,0.3568,39.2800,77,97,30359
1.7693,0.3568,39.3200,77,97,30363
1.7498,0.3568,39.3500,77,97,30366
1.7693,0.3715,39.2200,77,97,30369
1.7400,0.3617,39.3800,77,97,30372
1.7351,0.3568,39.2500,77,97,30376
1.7253,0.3568,39.3500,77,97,30380
1.7204,0.3568,39.3500,77,97,30383
1.7595,0.3617,39.1600,77,97,30386
1.7302,0.3617,39.3200,77,97,30390
1.7400,0.3568,39.2800,77,97,30393
1.7253,0.3568,39.3500,77,97,30396
1.7302,0.3568,39.3200,77,97,30399
1.7644,0.3715,39.2200,77,97,30403
1.7351,0.3666,39.3200,77,97,30406
1.7449,0.3666,39.2200,77,97,30409
1.7351,0.3568,39.3800,77,97,30412
1.7351,0.3568,39.4400,77,97,30416
1.7742,0.3666,39.2200,77,97,30419
1.7546,0.3617,39.3200,77,97,30423
1.7498,0.3568,39.2500,77,97,30426
1.7400,0.3617,39.3500,77,97,30430
1.7449,0.3763,39.3800,77,97,30433
1.7791,0.3666,38.4900,77,97,30436
1.7498,0.3568,39.3500,77,97,30439
1.7546,0.3568,39.2500,77,97,30443
1.7400,0.3568,39.3500,77,97,30446
1.7400,0.3812,39.3500,77,97,30449
1.7742,0.3666,39.2200,77,97,30452
1.7498,0.3568,39.3200,77,97,30456
1.7840,0.3568,39.2500,77,97,30459
1.7449,0.3861,39.3800,77,97,30462
1.7498,0.3568,39.3800,77,97,30466
1.7840,0.3715,39.2800,77,97,30470
1.7546,0.3470,39.3200,77,97,30473
1.7546,0.3763,39.2500,77,97,30476
1.7449,0.3861,39.3500,77,97,30479
1.7498,0.3568,39.5700,77,97,30483
1.7889,0.3666,39.1600,77,97,30486
1.7595,0.3617,39.3200,77,97,30489
1.7595,0.3568,39.2500,77,97,30493
1.7791,0.3568,39.4400,77,97,30496
1.7546,0.4057,39.3500,77,97,30499
1.7937,0.3666,39.2200,77,97,30502
1.7693,0.3568,39.3500,77,97,30507
1.8035,0.3519,39.2500,77,97,30510
1.7742,0.3910,39.3800,77,97,30513
1.7742,0.3568,39.3500,77,97,30516
1.8133,0.3715,39.3200,77,97,30520
1.7840,0.3617,39.2800,77,97,30523
1.8035,0.3568,39.2500,77,97,30526
1.7791,0.3519,39.3200,77,97,30529
1.7791,0.3763,39.3800,77,97,30533
1.8231,0.3666,39.2200,77,97,30536
1.7986,0.3617,39.2800,77,97,30539
1.8182,0.3568,39.2500,77,97,30542
1.8133,0.3470,39.3200,77,97,30546
1.8426,0.3617,39.3500,77,97,30550
1.8622,0.3666,39.2200,77,97,30553
1.8231,0.3715,39.3500,77,97,30556
1.8280,0.3568,39.2800,77,97,30560
1.8182,0.3617,39.3500,77,97,30563
1.8328,0.3568,39.3500,77,97,30566
1.8817,0.3715,39.2200,77,97,30569
1.8719,0.3617,39.2800,77,97,30573
1.8817,0.3519,39.2500,77,97,30576
1.8719,0.3617,39.3800,77,97,30579
1.8719,0.3568,39.3800,77,97,30582
1.9062,0.3666,39.1200,77,97,30586
1.8719,0.3568,39.3200,77,97,30589
1.8768,0.3568,39.2500,77,97,30593
1.8524,0.3568,39.3500,77,97,30596
1.8377,0.3519,39.3500,77,97,30600
1.8573,0.3617,39.2200,77,97,30603
1.8133,0.3666,39.3200,77,97,30606
1.8084,0.3617,38.4600,77,97,30609
1.7742,0.3568,39.3500,77,97,30613
1.7351,0.3617,39.3500,77,97,30616
1.7009,0.3617,39.3500,77,97,30620
1.7302,0.3666,39.5100,77,97,30623
1.6960,0.3568,39.2500,77,97,30626
1.7204,0.3617,39.2500,77,97,30629
1.6911,0.3519,39.3200,77,97,30633
1.7009,0.3617,39.3500,77,97,30637
1.7155,0.3715,39.2800,77,97,30640
1.7058,0.3568,39.4100,77,97,30643
1.7302,0.3666,39.2200,77,97,30647
1.7058,0.3568,39.3500,77,97,30650
1.7058,0.3715,39.3500,77,97,30653
1.7155,0.3666,39.3200,77,97,30656
1.7107,0.3568,39.2800,77,97,30660
1.7351,0.3666,39.2500,77,97,30663
1.7155,0.3568,39.3800,77,97,30666
1.7253,0.3568,39.3500,77,97,30669
1.7595,0.3617,39.3200,77,97,30673
1.7449,0.3617,39.3500,77,97,30676
1.7986,0.3617,39.2500,77,97,30680
1.7937,0.3519,39.3200,77,97,30683
1.8719,0.3568,39.3800,77,97,30687
2.0039,0.3617,39.2800,77,97,30690
2.1896,0.3617,39.3500,77,97,30693
2.4976,0.3617,38.4600,77,97,30696
2.8055,0.3568,39.3500,77,97,30700
3.1574,0.3568,39.3500,77,97,30703
3.4946,0.3617,39.2800,77,97,30706
3.6266,0.3568,39.3500,77,97,30709
3.6804,0.3666,39.2200,77,97,30713
3.4506,0.3568,39.3500,77,97,30716
3.1085,0.3568,39.3500,77,97,30720
2.6442,0.3666,39.2200,77,97,30723
2.0919,0.3568,39.2800,77,97,30727
1.6813,0.3666,39.2500,77,97,30730
1.3392,0.3617,39.3500,77,97,30733
1.1241,0.3568,39.3500,77,97,30736
1.0215,0.3617,39.2500,77,97,30740
0.9531,0.3568,39.3500,77,97,30743
1.0117,0.3666,39.2500,77,97,30746
1.0411,0.3568,39.3500,77,97,30749
1.1241,0.3568,39.3500,77,97,30753
1.2170,0.3568,39.3200,77,97,30756
1.2952,0.3617,39.3500,77,97,30759
1.3783,0.3666,39.2200,77,97,30763
1.4125,0.3861,39.3800,77,97,30767
1.4565,0.3568,39.3800,77,97,30770
1.5152,0.3666,39.2200,77,97,30773
1.5152,0.3568,39.3500,77,97,30776
1.5640,0.3666,39.2500,77,97,30780
1.5591,0.3617,39.3500,77,97,30783
1.5787,0.3812,39.3500,77,97,30786
1.6129,0.3617,39.0600,77,97,30789
1.6080,0.3568,39.3200,77,97,30793
1.6471,0.3666,39.3200,77,97,30796
1.6373,0.3568,39.3500,77,97,30799
1.6471,0.3568,39.5700,77,97,30802
1.6667,0.3617,39.3200,77,97,30807
1.6618,0.3568,39.3500,77,97,30810
1.7204,0.3715,39.2500,77,97,30813
1.6667,0.3617,39.3200,77,97,30816
1.6764,0.3617,39.3800,77,97,30820
1.7107,0.3666,39.1900,77,97,30823
1.6911,0.3568,39.3200,77,97,30826
1.7253,0.3666,39.3500,77,97,30830
1.6960,0.3568,39.3500,77,97,30833
1.7351,0.3568,39.3500,77,97,30836
1.7253,0.3568,39.2800,77,97,30839
1.7204,0.3666,39.3200,77,97,30843
1.7498,0.3617,39.2200,77,97,30846
1.7302,0.3568,39.3800,77,97,30850
1.7400,0.3568,39.3500,77,97,30853
1.7693,0.3568,39.3200,77,97,30857
1.7546,0.3666,39.3800,77,97,30860
1.7889,0.3666,39.2500,77,97,30863
1.7644,0.3568,39.4800,77,97,30866
1.7742,0.3568,39.3800,77,97,30870
1.8182,0.3666,39.2200,77,97,30873
1.7889,0.3470,39.3500,77,97,30876
1.8182,0.3861,39.2500,77,97,30879
1.7937,0.3568,39.0000,77,97,30883
1.7986,0.3568,39.3500,77,97,30886
1.8133,0.3568,39.2500,77,97,30889
1.8133,0.3568,39.3500,77,97,30893
1.8524,0.3666,39.2200,77,97,30897
1.8328,0.3568,39.4100,77,97,30900
1.8475,0.3568,39.3800,77,97,30903
1.8671,0.3568,39.3200,77,97,30906
1.8671,0.3666,39.3200,77,97,30910
1.9062,0.4008,39.2500,77,97,30913
1.8915,0.3568,39.3800,77,97,30916
1.9062,0.3568,39.3500,77,97,30919
1.9501,0.3470,39.2200,77,97,30923
1.9355,0.3519,39.4100,77,97,30926
1.9648,0.3715,39.2500,77,97,30929
1.9453,0.3568,39.3500,77,97,30932
1.9501,0.3568,39.4100,77,97,30937
1.9795,0.3617,39.2500,77,97,30940
1.9795,0.3568,39.3500,77,97,30943
2.0039,0.3763,39.2500,77,97,30946
1.9746,0.3568,39.1200,77,97,30950
1.9795,0.3568,39.3800,77,97,30953
1.9941,0.3617,39.3200,77,97,30956
1.9892,0.3617,39.3500,77,97,30959
2.0137,0.3666,39.2200,77,97,30963
1.9795,0.3617,39.3500,77,97,30966
1.9892,0.3568,39.0000,77,97,30969
2.0186,0.3666,39.2200,77,97,30972
1.9844,0.3568,39.3500,77,97,30977
2.0088,0.3715,39.2500,77,97,30980
1.9746,0.3568,39.4100,77,97,30983
1.9599,0.3568,39.2800,77,97,30986
1.9599,0.3617,39.2800,77,97,30990
1.9208,0.3470,39.3500,77,97,30993
1.9257,0.3715,39.2500,77,97,30996
1.8671,0.3568,39.3500,77,97,30999
1.8377,0.3568,39.3800,77,97,31003
1.8280,0.3617,39.3200,77,97,31006
1.8035,0.3617,39.3500,77,97,31009
1.7889,0.3666,39.2200,77,97,31012
1.7351,0.3763,39.3500,77,97,31016
1.7107,0.3568,39.4100,77,97,31020
1.7155,0.3666,39.2200,77,97,31023
1.6716,0.3568,39.3500,77,97,31026
1.6716,0.3666,39.2200,77,97,31030
1.6618,0.3568,39.3500,77,97,31033
1.6276,0.3519,39.3500,77,97,31036
1.6325,0.4008,39.2800,77,97,31039
1.6129,0.3568,39.3500,77,97,31043
1.6325,0.3666,39.2500,77,97,31046
1.6129,0.3617,39.3500,77,97,31049
1.6227,0.3715,39.3800,77,97,31052
1.6471,0.3617,39.2200,77,97,31056
1.6471,0.3568,39.3500,77,97,31059
1.6764,0.3666,39.2800,77,97,31063
1.6618,0.3568,39.3500,77,97,31066
1.6618,0.3617,39.3800,77,97,31070
1.7009,0.3959,39.2500,77,97,31073
1.6813,0.3568,39.3200,77,97,31076
1.7204,0.3666,39.3500,77,97,31080
1.7009,0.3568,39.3500,77,97,31083
1.7058,0.3568,39.3800,77,97,31086
1.7253,0.3617,39.2500,77,97,31089
1.7155,0.3568,39.2800,77,97,31093
1.7449,0.3666,39.2500,77,97,31096
1.7253,0.3568,39.3500,77,97,31099
1.7302,0.3470,39.3500,77,97,31102
1.7400,0.3666,39.2800,77,97,31107
1.7302,0.3568,39.4100,77,97,31110
1.7498,0.3666,39.2500,77,97,31113
1.7204,0.3568,39.3500,77,97,31116
1.7204,0.3519,39.3500,77,97,31120
1.7498,0.4057,39.2500,77,97,31123
1.7204,0.3568,39.3800,77,97,31126
1.7400,0.3666,39.2500,77,97,31129
1.7107,0.3470,39.3500,77,97,31133
1.7107,0.3617,39.3500,77,97,31136
1.7253,0.3617,39.2800,77,97,31139
1.7155,0.3617,39.3500,77,97,31142
1.7449,0.3666,39.2500,77,97,31147
1.7204,0.3568,39.3500,77,97,31150
1.7204,0.3568,39.3500,77,97,31153
1.7253,0.3666,39.3200,77,97,31156
1.7058,0.3617,39.3800,77,97,31160
1.7204,0.3666,39.2200,77,97,31163
1.6764,0.3568,39.4100,77,97,31166
1.6862,0.3568,39.3500,77,97,31169
1.7107,0.3666,39.1900,77,97,31173
1.6813,0.3568,39.3500,77,97,31176
1.6960,0.3617,39.3200,77,97,31179
1.6667,0.3568,39.3500,77,97,31182
1.6667,0.3568,39.3800,77,97,31186
1.6862,0.3666,39.2800,77,97,31190
1.6960,0.3519,39.3500,77,97,31193
1.6911,0.3666,39.2800,77,97,31196
1.6618,0.3568,38.7100,77,97,31200
1.6667,0.3568,39.3800,77,97,31203
1.6716,0.3617,39.2800,77,97,31206
1.6911,0.3617,39.3200,77,97,31209
1.6813,0.3763,39.2500,77,97,31213
1.6569,0.3617,39.3800,77,97,31216
1.6618,0.3568,39.2800,77,97,31219
1.6911,0.3666,39.2500,77,97,31222
1.6911,0.3666,39.3200,77,97,31226
1.6862,0.3519,39.3500,77,97,31229
1.7107,0.3617,39.1200,77,97,31234
1.6764,0.3568,39.3200,77,97,31237
1.6716,0.3568,39.3800,77,97,31240
1.6813,0.3617,39.3200,77,97,31243
1.6813,0.3568,39.3800,77,97,31247
1.7253,0.3666,39.1200,77,97,31250
1.7107,0.3568,39.3500,77,97,31253
1.7204,0.3519,39.3800,77,97,31256
1.7449,0.3715,39.2500,77,97,31260
1.7302,0.3568,39.3500,77,97,31263
1.7693,0.3666,39.2800,77,97,31266
1.7400,0.3617,39.2500,77,97,31269
1.7253,0.3568,39.3500,77,97,31273
1.7204,0.3470,39.3200,77,97,31277
1.7155,0.3812,39.3500,77,97,31280
1.7546,0.3666,39.1900,77,97,31283
1.7302,0.3568,39.3500,77,97,31287
1.7302,0.3568,39.3500,77,97,31290
1.7351,0.3666,39.3200,77,97,31293
1.7155,0.3715,39.3500,77,97,31296
1.7595,0.3666,39.1600,77,97,31300
1.7400,0.3568,39.3500,77,97,31303
1.7546,0.3568,39.3800,77,97,31306
1.7937,0.3666,39.2500,77,97,31309
1.7889,0.3617,39.3500,77,97,31313
1.8328,0.3715,39.1900,77,97,31316
1.8182,0.3861,39.3200,77,97,31320
1.8133,0.3568,39.4400,77,97,31323
1.8377,0.3617,39.2800,77,97,31327
1.8426,0.3568,39.3500,77,97,31330
1.9013,0.3666,39.1200,77,97,31333
1.8768,0.3470,39.3200,77,97,31337
1.8817,0.3617,39.3500,77,97,31340
1.9013,0.3617,38.6500,77,97,31343
1.8964,0.3568,39.3500,77,97,31346
1.9355,0.3470,39.1200,77,97,31350
1.8915,0.3568,39.3500,77,97,31353
1.8964,0.3666,39.3500,77,97,31356
1.8964,0.3617,39.2800,77,97,31360
1.8573,0.3568,39.3200,77,97,31364
1.8719,0.3666,39.1200,77,97,31367
1.8231,0.3617,39.2500,77,97,31370
1.7986,0.3470,39.3500,77,97,31373
1.7889,0.3568,39.3200,77,97,31377
1.7595,0.3519,39.3500,77,97,31380
1.7889,0.3666,39.1200,77,97,31383
1.7449,0.3617,39.3500,77,97,31386
1.7351,0.3568,39.3800,77,97,31390
1.7253,0.3617,39.3200,77,97,31393
1.7204,0.3568,39.3500,77,97,31396
1.7546,0.3715,39.1200,77,97,31399
1.7204,0.3519,39.3500,77,97,31404
1.7253,0.3568,39.3800,77,97,31407
1.7351,0.3715,39.2800,77,97,31410
1.7058,0.3568,39.3800,77,97,31413
1.7351,0.3666,39.0900,77,97,31417
1.7253,0.3910,39.2800,77,97,31420
1.7204,0.3568,39.3800,77,97,31423
1.7351,0.3617,39.4400,77,97,31426
1.7253,0.3568,39.3500,77,97,31430
1.7595,0.3666,39.1200,77,97,31433
1.7155,0.3568,39.3500,77,97,31436
1.7204,0.3519,39.3500,77,97,31439
1.7302,0.3617,39.4100,77,97,31443
1.7302,0.3568,39.3500,77,97,31447
1.7742,0.3666,39.1200,77,97,31450
1.7498,0.3568,39.4400,77,97,31453
1.7742,0.3617,39.3800,77,97,31457
1.8231,0.3910,39.2500,77,97,31460
1.8719,0.3568,39.3800,77,97,31463
2.0381,0.3666,39.1200,77,97,31466
2.1994,0.3568,39.2500,77,97,31470
2.4389,0.3519,39.3800,77,97,31473
2.7761,0.3519,39.3200,77,97,31476
3.0841,0.3568,38.6500,77,97,31479
3.3920,0.3715,39.1200,77,97,31483
3.4262,0.3568,39.3200,77,97,31486
3.3578,0.3519,39.3800,77,97,31490
3.1427,0.3617,39.5100,77,97,31493
2.7419,0.3568,39.3500,77,97,31497
2.3656,0.3715,39.1200,77,97,31500
1.8573,0.3568,39.3500,77,97,31503
1.5103,0.3812,39.3500,77,97,31506
1.2757,0.3666,39.3200,77,97,31510
1.1046,0.3617,39.3200,77,97,31513
1.0411,0.3666,39.1200,77,97,31516
0.9971,0.3666,39.2500,77,97,31519
1.0166,0.3666,39.3200,77,97,31523
1.0850,0.3568,39.3200,77,97,31526
1.1584,0.3568,39.3500,77,97,31529
1.2805,0.3715,39.1200,77,97,31533
1.3294,0.3568,39.3500,77,97,31537
1.4027,0.3470,39.3800,77,97,31540
1.4712,0.3617,39.3200,77,97,31543
1.5103,0.3568,39.3500,77,97,31546
1.5836,0.3568,39.1200,77,97,31550
1.5982,0.3519,39.3500,77,97,31553
1.6178,0.3519,39.3800,77,97,31556
1.6520,0.3617,39.3200,77,97,31559
1.6471,0.3568,39.5400,77,97,31563
1.6960,0.3666,39.1200,77,97,31566
1.6716,0.3666,39.2500,77,97,31569
1.6716,0.3617,39.3500,77,97,31572
1.7009,0.3568,39.2800,77,97,31577
1.6911,0.3568,39.3200,77,97,31580
1.7498,0.3666,39.1200,77,97,31583
1.7351,0.3617,39.4100,77,97,31587
1.7595,0.3568,39.3200,77,97,31590
1.7889,0.3470,39.3200,77,97,31593
1.7791,0.3617,39.3500,77,97,31596
1.8231,0.3666,39.0900,77,97,31600
1.7840,0.3519,39.3800,77,97,31603
1.7889,0.3568,39.3500,77,97,31606
1.7986,0.3470,39.3500,77,97,31609
1.7986,0.3568,39.3500,77,97,31613
1.8182,0.3715,39.1900,77,97,31617
1.7986,0.3763,39.2500,77,97,31620
1.7840,0.3568,39.3500,77,97,31623
1.7889,0.3617,39.3800,77,97,31627
1.7693,0.3568,39.3500,77,97,31630
1.7986,0.3715,39.1200,77,97,31633
1.7644,0.3568,39.3200,77,97,31636
1.7644,0.3568,39.3500,77,97,31640
1.7840,0.3617,39.3500,77,97,31643
1.7791,0.3568,39.3800,77,97,31646
1.8280,0.3715,39.1200,77,97,31649
1.7889,0.3568,39.3800,77,97,31653
1.7937,0.3617,39.3500,77,97,31656
1.8084,0.4008,39.3200,77,97,31660
1.8035,0.3568,39.3500,77,97,31663
1.8524,0.3666,39.0900,77,97,31667
1.8377,0.3715,39.3200,77,97,31670
1.8524,0.3617,39.3500,77,97,31673
1.8377,0.3470,39.3500,77,97,31676
1.8524,0.3861,39.3500,77,97,31680
1.9110,0.3666,39.2800,77,97,31683
1.8817,0.3568,39.3200,77,97,31686
1.8866,0.3568,39.3800,77,97,31689
1.9257,0.3568,39.3500,77,97,31693
1.9062,0.3519,39.3800,77,97,31696
1.9453,0.3666,39.2500,77,97,31699
1.9013,0.3568,39.3500,77,97,31703
1.9062,0.3568,39.4100,77,97,31707
1.9159,0.3666,39.3200,77,97,31710
1.9355,0.3568,39.3500,77,97,31713
1.9404,0.3666,39.1600,77,97,31716
1.9159,0.3617,39.3200,77,97,31720
1.8915,0.3568,39.3800,77,97,31723
1.9013,0.3617,39.3200,77,97,31726
1.8817,0.3617,39.4100,77,97,31729
1.9306,0.3763,39.1200,77,97,31733
1.8915,0.3617,39.3800,77,97,31736
1.9013,0.3568,39.3500,77,97,31739
1.9257,0.3617,39.3500,77,97,31742
1.9257,0.3617,39.3500,77,97,31747
1.9795,0.3715,39.0900,77,97,31750
1.9404,0.3568,39.3500,77,97,31753
1.9501,0.3568,39.3800,77,97,31756
1.9746,0.3568,39.2800,77,97,31760
1.9550,0.3568,39.3500,77,97,31763
1.9844,0.3666,39.1200,77,97,31766
1.9453,0.3617,39.3500,77,97,31769
1.9062,0.3568,39.3500,77,97,31773
1.8915,0.3617,39.3500,77,97,31776
1.8573,0.3470,39.3800,77,97,31779
1.8671,0.3910,39.1900,77,97,31782
1.7986,0.3617,39.3800,77,97,31787
1.7644,0.3568,39.4100,77,97,31790
1.7400,0.3617,39.3500,77,97,31793
1.7009,0.3617,39.3500,77,97,31796
1.7107,0.3666,39.1200,77,97,31800
1.6520,0.3519,39.4400,77,97,31803
1.6373,0.3568,39.3800,77,97,31806
1.6276,0.3666,39.3200,77,97,31809
1.6031,0.3519,39.4400,77,97,31813
1.6276,0.3666,39.1200,77,97,31816
1.6080,0.3666,39.1900,77,97,31819
1.6080,0.3568,39.3500,77,97,31822
1.6178,0.3617,39.3200,77,97,31826
1.6031,0.3519,39.4400,77,97,31830
1.6471,0.3666,39.1200,77,97,31833
1.6569,0.3763,39.1600,77,97,31837
1.6325,0.3568,39.3200,77,97,31840
1.6227,0.3519,39.3200,77,97,31843
1.6422,0.3617,39.3500,77,97,31847
1.6422,0.3519,39.3500,77,97,31850
1.6911,0.4057,39.1200,77,97,31853
1.6569,0.3617,38.5200,77,97,31856
1.6520,0.3519,39.3200,77,97,31860
1.6618,0.3470,39.3500,77,97,31863
1.6569,0.3519,39.3800,77,97,31866
1.7155,0.3763,39.2800,77,97,31869
1.6862,0.3568,39.1900,77,97,31874
1.6862,0.3470,39.1900,77,97,31877
1.7058,0.3568,39.3500,77,97,31880
1.7058,0.3959,39.2500,77,97,31883
1.7693,0.3763,39.1900,77,97,31887
1.7400,0.3617,39.4100,77,97,31890
1.7449,0.3470,39.3200,77,97,31893
1.7546,0.3617,39.3200,77,97,31896
1.7644,0.3568,39.3500,77,97,31900
1.8084,0.3812,39.1200,77,97,31903
1.7840,0.3617,39.3200,77,97,31906
1.7693,0.3470,39.3500,77,97,31909
1.7693,0.3568,39.3800,77,97,31913
1.7595,0.3617,39.3500,77,97,31917
1.8035,0.3763,39.1200,77,97,31920
1.7498,0.3763,39.3200,77,97,31924
1.7351,0.3519,39.4400,77,97,31927
1.7302,0.3568,39.3500,77,97,31930
1.7155,0.3617,39.3500,77,97,31933
1.7840,0.3812,39.1900,77,97,31937
1.7009,0.3568,39.2800,77,97,31940
1.6960,0.3519,39.3500,77,97,31943
1.6960,0.3617,39.3500,77,97,31946
1.6911,0.3568,39.3500,77,97,31950
1.7644,0.3763,39.0900,77,97,31953
1.7058,0.3617,39.3200,77,97,31956
1.6960,0.3519,39.3500,77,97,31960
1.7058,0.3568,39.4100,77,97,31964
1.7107,0.3568,39.3500,77,97,31967
1.7693,0.3812,39.1200,77,97,31970
1.7595,0.3568,39.2800,77,97,31973
1.7351,0.3666,39.3200,77,97,31977
1.7449,0.3568,39.2800,77,97,31980
1.7498,0.3568,39.3500,77,97,31983
1.8084,0.3763,39.1200,77,97,31986
1.7595,0.3470,39.3200,77,97,31990
1.7595,0.3715,39.3200,77,97,31993
1.7595,0.3568,39.3500,77,97,31996
1.7595,0.3470,39.3800,77,97,32000
1.8182,0.3715,39.1200,77,97,32004
1.7889,0.3666,39.2800,77,97,32007
1.7889,0.3519,39.3500,77,97,32010
1.8231,0.3568,39.3800,77,97,32013
1.7937,0.3568,39.3500,77,97,32017
1.8475,0.3763,39.0900,77,97,32020
1.8133,0.3666,39.4400,77,97,32023
1.8133,0.3568,39.3200,77,97,32026
1.8573,0.3470,39.3500,77,97,32030
1.8719,0.3763,39.3500,77,97,32033
1.9404,0.3763,39.1900,77,97,32036
1.9062,0.3617,39.4100,77,97,32039
1.9159,0.3519,39.3200,77,97,32044
1.9257,0.3617,39.3500,77,97,32047
1.9257,0.3568,39.3500,77,97,32050
1.9844,0.3763,39.1600,77,97,32053
1.9404,0.3666,39.2800,77,97,32057
1.9110,0.3519,39.3200,77,97,32060
1.9013,0.3617,39.3200,77,97,32063
1.8817,0.3519,39.3800,77,97,32066
1.9110,0.3715,39.1600,77,97,32070
1.8573,0.3568,39.2800,77,97,32073
1.8182,0.3519,39.3200,77,97,32076
1.7986,0.3617,39.3500,77,97,32079
1.7791,0.3470,39.3800,77,97,32083
1.8133,0.3812,39.1600,77,97,32087
1.7644,0.3568,39.4400,77,97,32090
1.7498,0.3568,39.3800,77,97,32093
1.7498,0.3617,39.3800,77,97,32097
1.7449,0.3568,39.2800,77,97,32100
1.7937,0.3763,39.1600,77,97,32103
1.7498,0.3666,39.2800,77,97,32106
1.7253,0.3568,39.3200,77,97,32110
1.7449,0.3568,39.3500,77,97,32113
1.6960,0.3617,39.3800,77,97,32116
1.7351,0.3763,38.5200,77,97,32120
1.6862,0.3617,39.2500,77,97,32123
1.6764,0.3568,39.3500,77,97,32126
1.6569,0.3568,39.3500,77,97,32130
1.6618,0.3519,39.3800,77,97,32134
1.6960,0.3763,39.1600,77,97,32137
1.6373,0.3617,39.1200,77,97,32140
1.6471,0.3568,39.3200,77,97,32143
1.6422,0.3568,39.3500,77,97,32147
1.6520,0.3470,39.3800,77,97,32150
1.7058,0.3763,39.1200,77,97,32153
1.6813,0.3666,38.6800,77,97,32156
1.6862,0.3568,39.3200,77,97,32160
1.7204,0.3568,39.4100,77,97,32163
1.7791,0.3568,39.3800,77,97,32166
1.9599,0.3861,39.1600,77,97,32169
2.0870,0.3617,39.3200,77,97,32174
2.3314,0.3568,39.4800,77,97,32177
2.6491,0.3568,39.3500,77,97,32180
2.9912,0.3568,39.3800,77,97,32183
3.3920,0.3715,39.1900,77,97,32187
3.5191,0.3666,39.3200,77,97,32190
3.5386,0.3568,39.3800,77,97,32193
3.3920,0.3617,39.3800,77,97,32196
3.0547,0.3470,39.3500,77,97,32200
2.6882,0.3861,39.1600,77,97,32203
2.1848,0.3666,39.3200,77,97,32206
1.7693,0.3568,39.3200,77,97,32209
1.4516,0.3568,39.3500,77,97,32214
1.2268,0.3568,39.3500,77,97,32217
1.1681,0.3666,39.2200,77,97,32220
1.0557,0.3470,39.3200,77,97,32223
1.0459,0.3666,39.0600,77,97,32227
1.0802,0.3568,39.3500,77,97,32230
1.1388,0.3568,39.3500,77,97,32233
1.2512,0.3861,39.0900,77,97,32236
1.3001,0.3617,39.3500,77,97,32240
1.3832,0.3519,39.3200,77,97,32243
1.4663,0.3617,39.4400,77,97,32246
1.5103,0.3568,39.4100,77,97,32249
1.5982,0.3763,39.1600,77,97,32253
1.5934,0.3666,39.3800,77,97,32257
1.5885,0.3519,39.3500,77,97,32260
1.6227,0.3568,39.3500,77,97,32263
1.6325,0.3568,39.3500,77,97,32267
1.6960,0.3763,39.1900,77,97,32270
1.6716,0.3715,39.2800,77,97,32273
1.6764,0.3519,39.2800,77,97,32276
1.6911,0.3568,39.3800,77,97,32280
1.7009,0.3568,39.3500,77,97,32283
1.7693,0.3715,39.1900,77,97,32286
1.7449,0.3568,39.3200,77,97,32289
1.7546,0.3568,39.3500,77,97,32293
1.7693,0.3568,39.3800,77,97,32296
1.7791,0.3568,39.3500,77,97,32300
1.8622,0.3763,39.1900,77,97,32303
1.8084,0.3568,39.3200,77,97,32307
1.8035,0.3519,39.5400,77,97,32310
1.8133,0.3617,39.3200,77,97,32313
1.8133,0.3568,39.3500,77,97,32316
1.8817,0.3763,39.1600,77,97,32320
1.8426,0.3617,39.3200,77,97,32323
1.8475,0.3470,39.3200,77,97,32326
1.8475,0.3666,39.3500,77,97,32329
1.8475,0.3568,39.0300,77,97,32333
1.9062,0.3763,39.1600,77,97,32336
1.8573,0.3617,39.3200,77,97,32339
1.8524,0.3470,39.3200,77,97,32343
1.8622,0.3617,39.3500,77,97,32347
1.8622,0.3568,39.3500,77,97,32350
1.9208,0.3763,39.1200,77,97,32353
1.8866,0.3666,39.3500,77,97,32356
1.8915,0.3519,39.3200,77,97,32360
1.8866,0.3617,39.3500,77,97,32363
1.8915,0.3568,39.3800,77,97,32366
1.9501,0.3763,39.2200,77,97,32370
1.9208,0.3666,39.3500,77,97,32373
1.9208,0.3568,39.3200,77,97,32376
1.9404,0.3568,39.3800,77,97,32379
1.9453,0.3812,39.3500,77,97,32384
2.0137,0.3763,39.1200,77,97,32387
1.9648,0.3617,39.3200,77,97,32390
1.9697,0.3568,39.3500,77,97,32393
1.9746,0.3568,39.3500,77,97,32397
1.9892,0.3470,39.3800,77,97,32400
2.0528,0.3861,39.1600,77,97,32403
2.0137,0.3617,39.3800,77,97,32406
2.0039,0.3568,39.3500,77,97,32410
2.0088,0.3568,39.3500,77,97,32413
2.0039,0.3568,39.3500,77,97,32416
2.0626,0.3763,39.1600,77,97,32419
2.0088,0.3617,39.2800,77,97,32423
1.9990,0.3715,39.3500,77,97,32427
1.9990,0.3568,39.3500,77,97,32430
1.9941,0.3568,39.3500,77,97,32433
2.0381,0.3763,39.1200,77,97,32437
1.9844,0.3568,39.3500,77,97,32440
1.9844,0.3519,39.3200,77,97,32443
1.9892,0.3861,39.3500,76,97,32446
1.9453,0.3568,39.3800,76,97,32450
1.9355,0.3568,39.3500,76,97,32453
1.9501,0.3715,39.1900,76,97,32456
1.8964,0.3666,39.3500,76,97,32460
1.8964,0.3617,39.2200,76,97,32463
1.8524,0.3568,39.3800,76,97,32466
1.8622,0.3568,39.3800,76,97,32470
1.8280,0.3715,39.2200,76,97,32474
1.7791,0.3617,39.3500,76,97,32477
1.7644,0.3617,39.2200,76,97,32480
1.7204,0.3568,39.3500,76,97,32483
1.6911,0.3568,39.3500,76,97,32487
1.6911,0.3666,39.2800,76,97,32490
1.6520,0.3617,39.3500,76,97,32493
1.6471,0.3617,39.1900,76,97,32496
1.6129,0.3617,39.3800,76,97,32500
1.6080,0.3568,39.3500,76,97,32503
1.6178,0.3666,39.1600,76,97,32506
1.5934,0.3617,39.3500,76,97,32510
1.6325,0.3470,39.2500,76,97,32514
1.5885,0.3519,39.3200,76,97,32517
1.5934,0.3568,39.3800,76,97,32520
1.6227,0.3666,39.1900,76,97,32524
1.6031,0.3568,39.3500,76,97,32527
1.6325,0.3617,39.2500,76,97,32530
1.6129,0.3666,39.3500,76,97,32533
1.6178,0.3568,39.3500,76,97,32537
1.6373,0.3617,39.2800,76,97,32540
1.6325,0.3617,39.2200,76,97,32543
1.6471,0.3617,39.2800,76,97,32546
1.6373,0.3568,39.4100,76,97,32550
1.6471,0.3568,39.3800,76,97,32553
1.6862,0.3666,39.1900,76,97,32557
1.6618,0.3617,39.3500,76,97,32560
1.6764,0.3617,39.3200,76,97,32564
1.6667,0.3568,39.3800,76,97,32567
1.6667,0.3568,39.3800,76,97,32570
1.6911,0.3666,39.2200,76,97,32573
1.6716,0.3568,39.3500,76,97,32577
1.6862,0.3617,39.2200,76,97,32580
1.6764,0.3617,39.3500,76,97,32583
1.6862,0.3568,39.3500,76,97,32586
1.7155,0.3715,39.3200,76,97,32590
1.7107,0.3568,39.3500,76,97,32593
1.7302,0.3617,39.2200,76,97,32596
1.7107,0.3568,39.3500,76,97,32600
1.7107,0.3568,39.3800,76,97,32604
1.7400,0.3763,39.1900,76,97,32607
1.7155,0.3617,39.3200,76,97,32610
1.7400,0.3617,39.2800,76,97,32613
1.7253,0.3568,39.3500,76,97,32617
1.7253,0.3470,39.3500,76,97,32620
1.7498,0.3666,39.1900,76,97,32623
1.7253,0.3617,39.3500,76,97,32626
1.7449,0.3617,39.2200,76,97,32630
1.7155,0.3666,39.3500,76,97,32633
1.7155,0.3568,39.4100,76,97,32636
1.7400,0.3666,39.3200,76,97,32641
1.7595,0.3568,39.3500,76,97,32644
1.7449,0.3715,39.2500,76,97,32647
1.7253,0.3617,39.3800,76,97,32650
1.7302,0.3519,39.3500,76,97,32654
1.7595,0.3666,39.1900,76,97,32657
1.7302,0.3568,39.4100,76,97,32660
1.7400,0.3617,39.2200,76,97,32663
1.7351,0.3568,39.3500,76,97,32667
1.7155,0.3519,39.3800,76,97,32670
1.7400,0.3666,39.2500,76,97,32673
1.7253,0.3568,39.3800,76,97,32676
1.7840,0.3617,39.2200,76,97,32680
1.7449,0.3617,39.3800,76,97,32684
1.7546,0.3617,39.3800,76,97,32687
1.7791,0.3666,39.3200,76,97,32690
1.7742,0.3568,39.3500,76,97,32694
1.8084,0.3617,39.2200,76,97,32697
1.7986,0.3568,39.3800,76,97,32700
1.8475,0.3568,39.3200,76,97,32703
1.8622,0.3715,39.1900,76,97,32707
1.8328,0.3666,39.3800,76,97,32710
1.8524,0.3617,39.2500,76,97,32713
1.8231,0.3568,39.3800,76,97,32716
1.8182,0.3568,39.3800,76,97,32720
1.8573,0.3666,39.2500,76,97,32723
1.8622,0.3617,39.3500,76,97,32727
1.8817,0.3617,39.1900,76,97,32730
1.8719,0.3519,39.3800,76,97,32734
1.8817,0.3568,39.2800,76,97,32737
1.9062,0.3617,39.3200,76,97,32740
1.8964,0.3470,39.3800,76,97,32743
1.9062,0.3568,39.2200,76,97,32747
1.8671,0.3617,39.3800,76,97,32750
1.8524,0.3568,39.3800,76,97,32753
1.8719,0.3666,39.2200,76,97,32756
1.8231,0.3568,39.3500,76,97,32760
1.8280,0.3666,39.2200,76,97,32763
1.7791,0.3617,39.3800,76,97,32766
1.7546,0.3568,39.3800,76,97,32770
1.7693,0.3666,39.3500,76,97,32774
1.7400,0.3568,39.3500,76,97,32777
1.7937,0.3568,39.2200,76,97,32780
1.7302,0.3617,39.3800,76,97,32783
1.7302,0.3910,39.3800,76,97,32787
1.7546,0.3666,39.3800,76,97,32790
1.7546,0.3617,39.3500,76,97,32793
1.7937,0.3568,39.2200,76,97,32796
1.7840,0.3617,39.3500,76,97,32800
1.7644,0.3617,39.3800,76,97,32803
1.8084,0.3666,39.2200,76,97,32806
1.7937,0.3568,39.3500,76,97,32809
1.8231,0.3617,39.2200,76,97,32814
1.8133,0.3470,39.3500,76,97,32817
1.8231,0.3617,39.3500,76,97,32820
1.8524,0.3763,39.2500,76,97,32823
1.8328,0.3568,39.4100,76,97,32827
1.8573,0.3617,39.2200,76,97,32830
1.8426,0.3568,39.3800,76,97,32833
1.8573,0.3568,39.3800,76,97,32836
1.8817,0.3568,39.2800,76,97,32840
1.8817,0.3568,39.3200,76,97,32843
1.9110,0.3617,39.2200,76,97,32846
1.9062,0.3568,39.3500,76,97,32849
1.9355,0.3568,39.3800,76,97,32854
1.9990,0.3715,39.1900,76,97,32857
2.0381,0.3568,39.3800,76,97,32860
2.1750,0.3617,39.2200,76,97,32863
2.3265,0.3470,39.3500,76,97,32867
2.5855,0.3861,39.3500,76,97,32870
2.9472,0.3715,39.2200,76,97,32873
3.2454,0.3568,39.3800,76,97,32876
3.5435,0.3470,39.2200,76,97,32880
3.6119,0.3568,39.3500,76,97,32883
3.5679,0.3617,39.3800,76,97,32886
3.3920,0.3666,39.2800,76,97,32889
2.9912,0.3568,39.4400,76,97,32893
2.5611,0.3617,39.2500,76,97,32897
2.0919,0.3568,39.3500,76,97,32900
1.7302,0.3519,39.3800,76,97,32903
1.4907,0.3715,39.1600,76,97,32907
1.3050,0.3568,39.3500,76,97,32910
1.2366,0.3617,39.2500,76,97,32913
1.1975,0.3568,39.3800,76,97,32917
1.2317,0.3568,39.3500,76,97,32920
1.3148,0.3763,39.2500,76,97,32923
1.3783,0.3568,39.3500,76,97,32926
1.4761,0.3617,39.2200,76,97,32930
1.5298,0.3470,39.3800,76,97,32933
1.5982,0.3568,39.3500,76,97,32936
1.6618,0.3617,39.3500,76,97,32940
1.6764,0.3568,39.5400,76,97,32944
1.7204,0.3617,39.2200,76,97,32947
1.7204,0.3568,39.3500,76,97,32950
1.7400,0.3568,39.3500,76,97,32953
1.7791,0.3812,39.1600,76,97,32957
1.7546,0.3812,39.3500,76,97,32960
1.7840,0.3617,39.1600,76,97,32963
1.7644,0.3568,39.3800,76,97,32966
1.7742,0.3568,39.3800,76,97,32970
1.8377,0.3568,39.2200,76,97,32973
1.7840,0.3568,39.3500,76,97,32976
1.8084,0.3617,39.2200,76,97,32979
1.7937,0.3470,39.3800,76,97,32984
1.7986,0.3519,39.3500,76,97,32987
1.8231,0.3617,39.3200,76,97,32990
1.8084,0.3568,39.3500,76,97,32993
1.8231,0.3617,39.2500,76,97,32997
1.7937,0.3568,39.3800,76,97,33000
1.7889,0.3568,39.4100,76,97,33003
1.8182,0.3715,39.1900,76,97,33006
1.7937,0.3568,39.4400,76,97,33010
1.8182,0.3666,39.1900,76,97,33013
1.8035,0.3568,39.2800,76,97,33016
1.8035,0.3568,39.3800,76,97,33019
1.8231,0.3666,39.2200,76,97,33024
1.8182,0.3568,39.4100,76,97,33027
1.8182,0.3812,39.1900,76,97,33030
1.7986,0.3568,39.2800,76,97,33033
1.8035,0.3617,39.3800,76,97,33037
1.8280,0.3666,39.4100,76,97,33040
1.8280,0.3470,39.3500,76,97,33043
1.8426,0.3715,39.2200,76,97,33046
1.8231,0.3617,39.3500,76,97,33050
1.8280,0.3568,39.3800,76,97,33053
1.8573,0.3666,39.1600,76,97,33056
1.8426,0.3617,38.4900,76,97,33060
1.8377,0.3568,39.3500,76,97,33063
1.8866,0.3617,39.1900,76,97,33067
1.8915,0.3470,39.3200,76,97,33071
1.8622,0.3519,39.3800,76,97,33074
1.8719,0.3812,39.2800,76,97,33077
1.8768,0.3568,39.3500,76,97,33080
1.9062,0.3617,39.1900,76,97,33084
1.8915,0.3568,39.3800,76,97,33087
1.9355,0.3568,39.3800,76,97,33090
1.9208,0.3715,39.2500,76,97,33093
1.9062,0.3617,39.3500,76,97,33097
1.9355,0.3617,39.2800,76,97,33100
1.9159,0.3568,39.2500,76,97,33103
1.9110,0.3568,39.3500,76,97,33106
1.9208,0.3617,39.3200,76,97,33111
1.9013,0.3617,39.3800,76,97,33114
1.9355,0.3617,39.1200,76,97,33117
1.9110,0.3568,39.2800,76,97,33120
1.9110,0.3568,39.3800,76,97,33124
1.9257,0.3617,39.2500,76,97,33127
1.9062,0.3519,39.3500,76,97,33130
1.9257,0.3812,39.2500,76,97,33133
1.8964,0.3568,39.3500,76,97,33137
1.8915,0.3568,39.4800,76,97,33140
1.9013,0.3666,39.2500,76,97,33143
1.8622,0.3568,39.5100,76,97,33146
1.8817,0.3617,39.1600,76,97,33150
1.8328,0.3470,39.2800,76,97,33154
1.8035,0.3568,39.3500,76,97,33157
1.7937,0.3812,39.2800,76,97,33161
1.7498,0.3568,39.3500,76,97,33164
1.7498,0.3617,39.1900,76,97,33167
1.7009,0.3568,39.2800,76,97,33170
1.6764,0.3812,39.3500,76,97,33174
1.6667,0.3617,39.3500,76,97,33177
1.6422,0.3568,39.3800,76,97,33180
1.6569,0.3470,39.1600,76,97,33183
1.6129,0.3568,39.4100,76,97,33187
1.6031,0.3617,39.3500,76,97,33190
1.6080,0.3666,39.2800,76,97,33193
1.5787,0.3568,39.3200,76,97,33197
1.5982,0.3617,39.2500,76,97,33201
1.5787,0.3617,39.2500,76,97,33204
1.5689,0.3568,39.3500,76,97,33207
1.5836,0.3666,39.2800,76,97,33210
1.5787,0.3568,39.3200,76,97,33214
1.6080,0.3617,39.1900,76,97,33217
1.5885,0.3568,39.3200,76,97,33220
1.5934,0.3470,39.3800,76,97,33223
1.6080,0.3617,39.2500,76,97,33227
1.6129,0.3568,39.3500,76,97,33230
1.6422,0.3617,39.1900,76,97,33233
1.6227,0.3568,39.3800,76,97,33236
1.6373,0.3568,39.3800,76,97,33241
1.6618,0.3666,39.2200,76,97,33244
1.6422,0.3470,39.3800,76,97,33247
1.6618,0.3568,39.1600,76,97,33250
1.6520,0.3617,39.2500,76,97,33254
1.6520,0.3568,39.4100,76,97,33257
1.6764,0.3617,39.2200,76,97,33260
1.6764,0.3568,39.3800,76,97,33263
1.7449,0.3617,39.1900,76,97,33267
1.7107,0.3568,39.2800,76,97,33270
1.6960,0.3861,39.3800,76,97,33273
1.7155,0.3617,39.4800,76,97,33276
1.7204,0.3568,39.3800,76,97,33281
1.7546,0.3715,39.2200,76,97,33284
1.7302,0.3470,39.3800,76,97,33287
1.7253,0.3666,39.3800,76,97,33290
1.7449,0.3617,39.2500,76,97,33294
1.7155,0.3568,39.3500,76,97,33297
1.7449,0.3617,39.1200,76,97,33300
1.7204,0.3617,39.2500,76,97,33303
1.7155,0.3617,39.4400,76,97,33307
1.7546,0.3617,39.2800,76,97,33310
1.7009,0.3617,39.4100,76,97,33313
1.7253,0.3617,39.1900,76,97,33316
1.6960,0.3568,39.3200,76,97,33320
1.6862,0.3568,39.3500,76,97,33324
1.6960,0.3666,39.3200,76,97,33327
1.6862,0.3568,39.4800,76,97,33330
1.7107,0.3617,39.2500,76,97,33334
1.6764,0.3568,39.4400,76,97,33337
1.6862,0.3617,39.3500,76,97,33340
1.7204,0.3715,39.2800,76,97,33343
1.7204,0.3617,39.3800,76,97,33347
1.7155,0.3617,39.1600,76,97,33350
1.7107,0.3617,39.4400,76,97,33353
1.7058,0.3470,39.3500,76,97,33356
1.7351,0.3617,39.2800,76,97,33360
1.7449,0.3568,39.3800,76,97,33363
1.7693,0.3568,39.1600,76,97,33367
1.7449,0.3568,39.2200,76,97,33370
1.7449,0.3568,39.3500,76,97,33374
1.7449,0.3470,39.2800,76,97,33377
1.7449,0.3568,39.3500,76,97,33380
1.7889,0.3617,39.1600,76,97,33383
1.7742,0.3763,39.3500,76,97,33387
1.7937,0.3568,38.6200,76,97,33390
1.8231,0.3666,39.2800,76,97,33393
1.8133,0.3568,39.3800,76,97,33397
1.8622,0.3470,39.1600,76,97,33400
1.8426,0.3568,39.2500,76,97,33403
1.8280,0.3617,39.3800,76,97,33406
1.8280,0.3666,39.2800,76,97,33411
1.7937,0.3568,39.4400,76,97,33414
1.8133,0.3666,39.1200,76,97,33417
1.7595,0.3568,39.2800,76,97,33420
1.7302,0.3568,39.3800,76,97,33424
1.7155,0.3568,39.3800,76,97,33427
1.6813,0.3568,39.5700,76,97,33430
1.6911,0.3617,39.1600,76,97,33433
1.6471,0.3568,39.4100,76,97,33437
1.6422,0.3568,39.1900,76,97,33440
1.6422,0.3666,39.2800,76,97,33443
1.6227,0.3568,39.3500,76,97,33446
1.6520,0.3617,39.1600,76,97,33451
1.6276,0.3617,39.2500,76,97,33454
1.6276,0.3568,39.3800,76,97,33457
1.6373,0.3666,39.3200,76,97,33460
1.6276,0.3568,39.3800,76,97,33464
1.7107,0.3666,39.1200,76,97,33467
1.6716,0.3568,39.2800,76,97,33470
1.6569,0.3470,39.3500,76,97,33473
1.6764,0.3617,39.3200,76,97,33477
1.6813,0.3568,39.3800,76,97,33480
1.7253,0.3470,39.1600,76,97,33483
1.6960,0.3568,39.3800,76,97,33486
1.7009,0.3519,39.3500,76,97,33490
1.7204,0.3959,39.3500,76,97,33494
1.7058,0.3568,39.5400,76,97,33497
1.7449,0.3666,39.1600,76,97,33500
1.7351,0.3617,39.2500,76,97,33504
1.7595,0.3568,39.3800,76,97,33507
1.7937,0.3568,39.3200,76,97,33510
1.7644,0.3568,39.3200,76,97,33513
1.8280,0.3666,39.1600,76,97,33517
1.8328,0.3568,39.3500,76,97,33520
1.8964,0.3568,39.3800,76,97,33523
2.0332,0.3617,39.3200,76,97,33526
2.2239,0.3617,39.3500,76,97,33530
2.5513,0.3666,39.1900,76,97,33533
2.8495,0.3568,39.5100,76,97,33537
3.1916,0.3470,39.4100,76,97,33540
3.4995,0.3666,39.2800,76,97,33544
3.5973,0.3568,39.3800,76,97,33547
3.6315,0.3666,39.1200,76,97,33550
3.3773,0.3617,39.1900,76,97,33553
2.9668,0.3470,39.3800,76,97,33557
2.4878,0.3470,39.2800,76,97,33560
1.9795,0.3617,39.3800,76,97,33563
1.6031,0.3617,39.1600,76,97,33566
1.2854,0.3568,39.3200,76,97,33570
1.1046,0.3568,39.3800,76,97,33573
1.0166,0.3666,39.3200,76,97,33576
0.9873,0.3568,39.4100,76,97,33580
1.0362,0.3470,39.1600,76,97,33584
1.0850,0.3470,39.3800,76,97,33587
1.1730,0.3568,39.3800,76,97,33590
1.2757,0.3666,39.2500,76,97,33593
1.3490,0.3568,39.4400,76,97,33597
1.4467,0.3617,39.1900,76,97,33600
1.4858,0.3617,39.2800,76,97,33603
1.5200,0.3666,39.3800,76,97,33606
1.5591,0.3617,39.3800,76,97,33610
1.5738,0.3568,39.4100,76,97,33613
1.6227,0.3470,39.1900,76,97,33616
1.6080,0.3568,39.2800,76,97,33619
1.6227,0.3568,39.4400,76,97,33624
1.6373,0.3617,39.3200,76,97,33627
1.6422,0.3568,39.3800,76,97,33630
1.6716,0.3568,39.1900,76,97,33633
1.6471,0.3568,39.4400,76,97,33637
1.6716,0.3568,39.3200,76,97,33640
1.6960,0.3617,39.2800,76,97,33643
1.6911,0.3568,39.4100,76,97,33646
1.7351,0.3617,39.1600,76,97,33650
1.7253,0.3568,39.2800,76,97,33653
1.7302,0.3666,39.3800,76,97,33656
1.7546,0.3666,39.3200,76,97,33660
1.7498,0.3568,39.4100,76,97,33664
1.7840,0.3617,39.2200,76,97,33667
1.8475,0.3715,39.0900,76,97,33671
1.7840,0.3617,39.3500,76,97,33674
1.7889,0.3568,39.4800,76,97,33677
1.7937,0.3617,39.3500,76,97,33680
1.7937,0.3568,39.3800,76,97,33684
1.8524,0.3715,39.0600,76,97,33687
1.8231,0.3617,39.2800,76,97,33690
1.8182,0.3519,39.5700,76,97,33693
1.8328,0.3617,39.2200,76,97,33697
1.8377,0.3617,39.3800,76,97,33700
1.8866,0.3763,39.0600,76,97,33703
1.8622,0.3470,39.3200,76,97,33707
1.8524,0.3617,39.3800,76,97,33711
1.8719,0.3617,39.3200,76,97,33714
1.8671,0.3568,39.4400,76,97,33717
1.9208,0.3470,39.1200,76,97,33720
1.8719,0.3568,39.4400,76,97,33724
1.8817,0.3666,39.3500,76,97,33727
1.8915,0.3568,39.3500,76,97,33730
1.8915,0.3568,39.3500,76,97,33733
1.9501,0.3715,39.0900,76,97,33737
1.9257,0.3617,39.2800,76,97,33740
1.9257,0.3617,39.3800,76,97,33743
1.9648,0.3568,39.3500,76,97,33746
1.9404,0.3568,39.3500,76,97,33751
2.0039,0.3715,39.0900,76,97,33754
1.9697,0.3617,39.2800,76,97,33757
1.9648,0.3568,39.4100,76,97,33760
1.9795,0.3617,39.3800,76,97,33764
1.9795,0.3519,39.2800,76,97,33767
2.0381,0.3715,39.1900,76,97,33770
1.9892,0.3666,39.3500,76,97,33774
1.9941,0.3617,39.3800,76,97,33777
1.9990,0.3617,39.3500,76,97,33780
1.9941,0.3568,39.3500,76,97,33783
2.0772,0.3715,39.0600,76,97,33787
2.0088,0.3617,39.2800,76,97,33790
1.9892,0.3470,39.3800,76,97,33794
1.9892,0.3617,39.3800,76,97,33797
1.9746,0.3617,39.3500,76,97,33801
2.0186,0.3715,39.1200,76,97,33804
1.9599,0.3568,39.3200,76,97,33807
1.9306,0.3568,38.6500,76,97,33810
1.9159,0.3617,39.3500,76,97,33814
1.8964,0.3519,39.3800,76,97,33817
1.9013,0.3861,39.0900,76,97,33820
1.8231,0.3568,39.2800,76,97,33823
1.7937,0.3568,39.3800,76,97,33827
1.7644,0.3617,39.3500,76,97,33830
1.7253,0.3470,39.3800,76,97,33833
1.7400,0.3715,39.0900,76,97,33837
1.6862,0.3617,39.2500,76,97,33841
1.6471,0.3568,39.3800,76,97,33844
1.6373,0.3617,39.3800,76,97,33847
1.6129,0.3568,39.4100,76,97,33850
1.6716,0.3666,39.0600,76,97,33854
1.6178,0.3568,39.3500,76,97,33857
1.5934,0.3470,39.4100,76,97,33860
1.5982,0.3568,39.3500,76,97,33863
1.5982,0.3568,39.4100,76,97,33867
1.6667,0.3666,39.0900,76,97,33870
1.6080,0.3519,39.3200,76,97,33873
1.6080,0.3568,39.4100,76,97,33876
1.6227,0.3617,39.3500,76,97,33881
1.6129,0.3568,39.3800,76,97,33884
1.6520,0.3666,39.0900,76,97,33887
1.6373,0.3617,39.2200,76,97,33890
1.6325,0.3568,39.3800,76,97,33894
1.6520,0.3617,39.4100,76,97,33897
1.6569,0.3568,39.3800,76,97,33900
1.7107,0.3470,39.0900,76,97,33903
1.6813,0.3568,39.3200,76,97,33907
1.6862,0.3519,39.3800,76,97,33910
1.6960,0.3617,39.4800,76,97,33913
1.7009,0.3568,39.3800,76,97,33916
1.7595,0.3666,39.1200,76,97,33921
1.7204,0.3568,39.3500,76,97,33924
1.7302,0.3617,39.3800,76,97,33927
1.7449,0.3568,39.2200,76,97,33930
1.7351,0.3568,39.3500,76,97,33934
1.7840,0.3715,39.1900,76,97,33937
1.7595,0.3617,39.2500,76,97,33940
1.7449,0.3519,39.3800,76,97,33943
1.7449,0.3617,39.3800,76,97,33947
1.7302,0.3568,39.3800,76,97,33950
1.7742,0.3763,39.1200,76,97,33953
1.7351,0.3617,39.3800,76,97,33956
1.7302,0.3568,39.4400,76,97,33960
1.7400,0.3568,39.3800,76,97,33964
1.7400,0.3519,39.3500,76,97,33967
1.7937,0.3666,39.0900,76,97,33970
1.7546,0.3568,39.2200,76,97,33974
1.7644,0.3568,39.3800,76,97,33977
1.7840,0.3470,39.3500,76,97,33980
1.7742,0.3568,39.3800,76,97,33983
1.8280,0.3715,39.1200,76,97,33987
1.7937,0.3617,39.3500,76,97,33990
1.7840,0.3568,39.3800,76,97,33993
1.7889,0.3470,39.3500,76,97,33996
1.7742,0.3519,39.3500,76,97,34000
1.8182,0.3959,39.1200,76,97,34003
1.7742,0.3617,39.2800,76,97,34007
1.7693,0.3568,39.3500,76,97,34010
1.7742,0.3617,39.3500,76,97,34014
1.7693,0.3568,39.3800,76,97,34017
1.8035,0.3666,39.1200,76,97,34020
1.7546,0.3568,39.6400,76,97,34023
1.7546,0.3568,39.3800,76,97,34027
1.7595,0.3617,39.3500,76,97,34030
1.7498,0.3568,39.3800,76,97,34033
1.7889,0.3715,39.0900,76,97,34036
1.7644,0.3617,39.2500,76,97,34040
1.7595,0.3568,38.6500,76,97,34043
1.7791,0.3617,39.4100,76,97,34046
1.7986,0.3470,39.3500,76,97,34050
1.8622,0.3910,39.1900,76,97,34054
1.8426,0.3666,39.3200,76,97,34057
1.8426,0.3568,39.3200,76,97,34060
1.8524,0.3617,39.4400,76,97,34063
1.8475,0.3568,39.4100,76,97,34067
1.9257,0.3666,39.1200,76,97,34070
1.8768,0.3568,39.3200,76,97,34073
1.8866,0.3519,39.3800,76,97,34077
1.9110,0.3617,39.3500,76,97,34080
1.9159,0.3617,39.3500,76,97,34083
1.9697,0.3715,39.0600,76,97,34086
1.9404,0.3470,39.2800,76,97,34091
1.9159,0.3666,39.3800,76,97,34094
1.9159,0.3861,39.3200,76,97,34097
1.8964,0.3568,39.2800,76,97,34100
1.9355,0.3666,39.1600,76,97,34104
1.8768,0.3617,39.3200,76,97,34107
1.8475,0.3568,39.3800,76,97,34110
1.8475,0.3568,39.3500,76,97,34113
1.7986,0.3666,39.3800,76,97,34117
1.8280,0.3715,39.0900,76,97,34120
1.7644,0.3568,39.3200,76,97,34123
1.7498,0.3470,39.3800,76,97,34126
1.7449,0.3568,39.3500,76,97,34130
1.7253,0.3519,39.3500,76,97,34134
1.7546,0.3715,39.0900,76,97,34137
1.7253,0.3617,39.3800,76,97,34140
1.7155,0.3568,39.3800,76,97,34144
1.7253,0.3617,39.4100,76,97,34147
1.7302,0.3568,39.3800,76,97,34150
1.7791,0.3617,39.1900,76,97,34153
1.7498,0.3617,39.2800,76,97,34157
1.7498,0.3568,39.4100,76,97,34160
1.7595,0.3617,39.3800,76,97,34163
1.7644,0.3568,39.2800,76,97,34166
1.8182,0.3715,39.0900,76,97,34170
1.7791,0.3470,39.3200,76,97,34173
1.8035,0.3568,39.3800,76,97,34177
1.7840,0.3617,39.3200,76,97,34180
1.7742,0.3568,39.3500,76,97,34184
1.8280,0.3715,39.1200,76,97,34187
1.8035,0.3617,39.2800,76,97,34190
1.7986,0.3617,39.3800,76,97,34193
1.8182,0.3568,39.3500,76,97,34197
1.8231,0.3519,39.4100,76,97,34200
1.8964,0.3715,39.0900,76,97,34203
1.8866,0.3568,39.2800,76,97,34206
1.9404,0.3568,39.3800,76,97,34210
2.0577,0.3617,39.3200,76,97,34213
2.2434,0.3568,39.3800,76,97,34216
2.5806,0.3715,39.0900,76,97,34220
2.8592,0.3568,39.3200,76,97,34224
3.1867,0.3519,39.3800,76,97,34227
3.4848,0.3812,39.3500,76,97,34230
3.6217,0.3568,39.2800,76,97,34233
3.6999,0.3715,39.0600,76,97,34237
3.4457,0.3617,39.3200,76,97,34240
3.0694,0.3568,39.3800,76,97,34243
2.6051,0.3861,39.3500,76,97,34246
2.1017,0.3568,39.3800,76,97,34250
1.7253,0.3715,39.0900,76,97,34253
1.3636,0.3568,39.3200,76,97,34256
1.1681,0.3519,39.3800,76,97,34259
1.0753,0.3568,39.3800,76,97,34264
1.0557,0.3470,39.3800,76,97,34267
1.1290,0.3812,39.1200,76,97,34270
1.1779,0.3763,39.3500,76,97,34273
1.2708,0.3568,39.4100,76,97,34277
1.3636,0.3617,39.3500,76,97,34280
1.5885,0.3568,39.3800,76,97,34284
1.6129,0.3519,39.3800,76,97,34287
1.6764,0.3715,39.1900,76,97,34290
1.6618,0.3568,39.3200,76,97,34293
1.6813,0.3568,39.2500,76,97,34297
1.6911,0.3568,39.3500,76,97,34300
1.7107,0.3568,39.3800,76,97,34304
1.7644,0.3715,39.2200,76,97,34307
1.7351,0.3568,39.3500,76,97,34311
1.7498,0.3666,39.3200,76,97,34314
1.7546,0.3666,39.3800,76,97,34317
1.7693,0.3568,39.4100,76,97,34320
1.8084,0.3666,39.3200,76,97,34324
1.7840,0.3617,39.3500,76,97,34327
1.7937,0.3617,39.2800,76,97,34330
1.7840,0.3617,39.3800,76,97,34333
1.7840,0.3715,39.3800,76,97,34337
1.8280,0.3666,39.6700,76,97,34340
1.8035,0.3617,39.3500,76,97,34343
1.8035,0.3470,39.3500,76,97,34347
1.7986,0.3568,39.3500,76,97,34351
1.8084,0.3568,39.4100,76,97,34354
1.8573,0.3715,39.2200,76,97,34357
1.8328,0.3617,39.3500,76,97,34360
1.8280,0.3568,39.2800,76,97,34364
1.8280,0.3617,39.3500,76,97,34367
1.8280,0.3617,39.3800,76,97,34370
1.8768,0.3715,39.4100,76,97,34373
1.8524,0.3617,39.3200,76,97,34377
1.8622,0.3519,39.2800,76,97,34380
1.8622,0.3568,39.3800,76,97,34383
1.8671,0.3910,39.3800,76,97,34386
1.9159,0.3666,39.2200,76,97,34391
1.8964,0.3568,39.4100,76,97,34394
1.9013,0.3568,39.3500,76,97,34397
1.9013,0.3568,39.3800,76,97,34401
1.9062,0.3568,39.3800,76,97,34404
1.9599,0.3617,39.3200,76,97,34407
1.9355,0.3666,39.3500,76,97,34410
1.9501,0.3568,39.2800,76,97,34414
1.9501,0.3568,39.3800,76,97,34417
1.9599,0.3568,39.3800,76,97,34420
2.0039,0.3715,39.2200,76,97,34423
1.9844,0.3568,39.3500,76,97,34427
1.9892,0.3568,39.4100,76,97,34430
1.9892,0.3568,39.4400,76,97,34434
1.9941,0.3568,39.3800,76,97,34437
2.0479,0.3470,39.2200,76,97,34441
2.0283,0.3568,39.3200,76,97,34444
2.0235,0.3568,39.5400,76,97,34447
2.0235,0.3568,39.4100,76,97,34450
2.0332,0.3568,39.3800,76,97,34454
2.0870,0.3715,39.3200,76,97,34457
2.0577,0.3568,39.3500,76,97,34460
2.0674,0.3568,39.2800,76,97,34463
2.0870,0.3568,39.3800,76,97,34467
2.0674,0.3519,39.3500,76,97,34470
2.1212,0.3763,38.5200,76,97,34473
2.0870,0.3617,39.3200,76,97,34477
2.0723,0.3568,39.2800,76,97,34480
2.0674,0.3568,39.3500,76,97,34484
2.0577,0.3568,39.3800,76,97,34487
2.1114,0.3715,39.1900,76,97,34490
2.0528,0.3617,39.3200,76,97,34494
2.0283,0.3617,39.3200,76,97,34497
2.0039,0.3568,39.3800,76,97,34500
1.9746,0.3568,39.3800,76,97,34503
2.0235,0.3812,39.1900,76,97,34506
1.9257,0.3617,39.3200,76,97,34510
1.8915,0.3519,39.3200,76,97,34513
1.8622,0.3568,39.3800,76,97,34516
1.8231,0.3568,39.4400,76,97,34521
1.8426,0.3763,39.2200,76,97,34524
1.7791,0.3666,39.3200,76,97,34527
1.7351,0.3568,39.2800,76,97,34530
1.7449,0.3519,39.3800,76,97,34534
1.6911,0.3568,39.4100,76,97,34537
1.7204,0.3666,39.1200,76,97,34540
1.6716,0.3617,39.2200,76,97,34543
1.6569,0.3568,39.3500,76,97,34547
1.6471,0.3568,39.3800,76,97,34550
1.6520,0.3617,39.4400,76,97,34553
1.6911,0.3666,39.2500,76,97,34556
1.6520,0.3568,39.3200,76,97,34561
1.6520,0.3568,39.3200,76,97,34564
1.6520,0.3568,39.3500,76,97,34567
1.6569,0.3568,39.3800,76,97,34570
1.7107,0.3715,39.1900,76,97,34574
1.6813,0.4154,39.3800,76,97,34577
1.6764,0.3568,39.4800,76,97,34580
1.6862,0.3568,39.4400,76,97,34583
1.6960,0.3568,39.3800,76,97,34587
1.7546,0.3470,39.1900,76,97,34590
1.7351,0.3617,39.3500,76,97,34593
1.7302,0.3617,39.3200,76,97,34596
1.7351,0.3715,39.3500,76,97,34600
1.7351,0.3568,39.3500,76,97,34604
1.7889,0.3715,39.2200,76,97,34607
1.7644,0.3568,39.3800,76,97,34610
1.7742,0.3568,39.3200,76,97,34614
1.7889,0.3568,39.4400,76,97,34617
1.7840,0.3568,39.3800,76,97,34620
1.8328,0.3959,39.2500,76,97,34623
1.8035,0.3617,39.4100,76,97,34627
1.7986,0.3470,39.3200,76,97,34630
1.7937,0.3568,39.3500,76,97,34633
1.7937,0.3617,39.3500,76,97,34636
1.8328,0.3617,39.1600,76,97,34640
1.7986,0.3666,39.3200,76,97,34643
1.7986,0.3617,39.3200,76,97,34647
1.7937,0.3568,39.3500,76,97,34650
1.7986,0.3470,39.4100,76,97,34654
1.8426,0.3666,39.2200,76,97,34657
1.8084,0.3568,39.3500,76,97,34660
1.8035,0.3568,39.3800,76,97,34663
1.8035,0.3568,39.3500,76,97,34667
1.7986,0.3568,39.3800,76,97,34670
1.8475,0.3715,39.1900,76,97,34673
1.8231,0.3617,39.3200,76,97,34676
1.8084,0.3568,39.2800,76,97,34680
1.7986,0.3666,39.3500,76,97,34683
1.7937,0.3568,39.3800,76,97,34686
1.8280,0.3666,39.1900,76,97,34690
1.7986,0.3617,39.3500,76,97,34694
1.7986,0.3568,39.2800,76,97,34697
1.7840,0.3568,39.4100,76,97,34700
1.7791,0.3568,39.3800,76,97,34704
1.8231,0.3715,39.2500,76,97,34707
1.7840,0.3470,39.3500,76,97,34710
1.7840,0.3519,39.3200,76,97,34713
1.7791,0.3568,39.4100,76,97,34717
1.7791,0.3568,39.3800,76,97,34720
1.8231,0.3715,39.2500,76,97,34723
1.7937,0.3617,39.3500,76,97,34726
1.7791,0.3568,39.3500,76,97,34731
1.7693,0.3568,39.3500,76,97,34734
1.7644,0.3715,39.3800,76,97,34737
1.7986,0.3617,39.1600,76,97,34740
1.7644,0.3715,39.3500,76,97,34744
1.7742,0.3568,39.2800,76,97,34747
1.7693,0.3568,39.4400,76,97,34750
1.7791,0.3470,39.3500,76,97,34753
1.8133,0.3617,39.2200,76,97,34757
1.7840,0.3666,39.3500,76,97,34760
1.7889,0.3568,39.2800,76,97,34763
1.7840,0.3568,39.4100,76,97,34766
1.7791,0.3568,39.3800,76,97,34770
1.8231,0.3666,39.2500,76,97,34774
1.7791,0.3568,39.3500,76,97,34777
1.7889,0.3519,39.2500,76,97,34780
1.7791,0.3617,39.3500,76,97,34784
1.7840,0.3568,39.3200,76,97,34787
1.8231,0.3666,39.1900,76,97,34790
1.7937,0.3568,39.3500,76,97,34793
1.8035,0.3470,39.2800,76,97,34797
1.8084,0.3519,39.3800,76,97,34800
1.8231,0.3568,39.6400,76,97,34803
1.8768,0.3666,39.2200,76,97,34806
1.8573,0.3568,39.3200,76,97,34810
1.8622,0.3568,39.2800,76,97,34813
1.8573,0.3617,39.3500,76,97,34817
1.8524,0.3617,39.3800,76,97,34820
1.9062,0.3715,39.2200,76,97,34824
1.8964,0.3617,39.3500,76,97,34827
1.8964,0.3568,39.2800,76,97,34830
1.9208,0.3568,39.3500,76,97,34833
1.9159,0.3568,39.3500,76,97,34837
1.9648,0.3666,38.8400,76,97,34840
1.9306,0.3568,39.3500,76,97,34843
1.9257,0.3568,39.3500,76,97,34846
1.9013,0.3568,39.3800,76,97,34850
1.8915,0.3568,38.7400,76,97,34853
1.9306,0.3666,39.2200,76,97,34856
1.8866,0.3568,39.3500,76,97,34860
1.8671,0.3617,39.3800,76,97,34864
1.8475,0.3568,39.3500,76,97,34867
1.8280,0.3568,39.3800,76,97,34870
1.8622,0.3715,39.2500,76,97,34873
1.8182,0.3617,39.3200,76,97,34877
1.8035,0.3568,39.3200,76,97,34880
1.8133,0.3617,39.3500,76,97,34883
1.7742,0.3568,39.3800,76,97,34886
1.8084,0.3666,39.2500,76,97,34890
1.7889,0.3666,39.5100,76,97,34893
1.7986,0.3568,39.3500,76,97,34897
1.8035,0.4008,39.2500,76,97,34900
1.7791,0.3568,39.3800,76,97,34904
1.7840,0.3568,39.4100,76,97,34907
1.7986,0.3617,39.3200,76,97,34911
1.7889,0.3617,39.4100,76,97,34914
1.8133,0.3617,39.2200,76,97,34917
1.7937,0.3715,39.3500,76,97,34920
1.7986,0.3568,39.3500,76,97,34924
1.8231,0.3666,39.2200,76,97,34927
1.8084,0.3568,39.3800,76,97,34930
1.8377,0.3617,39.3200,76,97,34933
1.8231,0.3666,39.5100,76,97,34937
1.8426,0.3568,39.3200,76,97,34940
1.8964,0.3715,39.2800,76,97,34944
1.9062,0.3568,39.3800,76,97,34947
2.0088,0.3617,39.2200,76,97,34951
2.1114,0.3568,39.3500,76,97,34954
2.3216,0.3568,39.3500,76,97,34957
2.6246,0.3568,39.3200,76,97,34960
2.9472,0.3568,39.3500,76,97,34964
3.2942,0.3763,39.2500,76,97,34967
3.4848,0.3568,39.3800,76,97,34970
3.5826,0.3568,39.3500,76,97,34973
3.5630,0.3666,39.2800,76,97,34977
3.2747,0.3568,39.4100,76,97,34980
2.9374,0.3666,39.2500,76,97,34983
2.3998,0.3568,39.2500,76,97,34987
1.9453,0.3568,39.3800,76,97,34991
1.5836,0.3666,39.2500,76,97,34994
1.2952,0.3568,39.3500,76,97,34997
1.1730,0.3715,39.3200,76,97,35000
1.0606,0.3910,39.3500,76,97,35004
1.0557,0.3568,39.4400,76,97,35007
1.1241,0.3617,39.3200,76,97,35010
1.1877,0.3617,39.3500,76,97,35013
1.3001,0.3715,39.2500,76,97,35017
1.3832,0.3617,39.3500,76,97,35020
1.4663,0.3519,39.4400,76,97,35023
1.5591,0.3666,39.2200,76,97,35026
1.5787,0.3568,39.3800,76,97,35031
1.6764,0.3617,39.2500,76,97,35034
1.6471,0.3519,39.3800,76,97,35037
1.6716,0.3568,39.2800,76,97,35041
1.7155,0.3715,39.2500,76,97,35044
1.7107,0.3568,39.3800,76,97,35047
1.7498,0.3617,39.2500,76,97,35050
1.7449,0.3568,39.3800,76,97,35054
1.7644,0.3470,39.3800,76,97,35057
1.7937,0.3617,39.3200,76,97,35060
1.7937,0.3666,39.3800,76,97,35063
1.8328,0.3617,39.2500,76,97,35067
1.8182,0.3568,38.6500,76,97,35070
1.8377,0.3519,39.4400,76,97,35074
1.8768,0.3666,39.2500,76,97,35077
1.8573,0.3470,39.3800,76,97,35081
1.8866,0.3715,39.3200,76,97,35084
1.8671,0.3715,39.3800,76,97,35087
1.8768,0.3519,39.4100,76,97,35090
1.9110,0.3666,39.2800,76,97,35094
1.8915,0.3568,39.3500,76,97,35097
1.9648,0.3617,39.2500,76,97,35100
1.9110,0.3617,39.4100,76,97,35103
1.9257,0.4008,39.3800,76,97,35107
1.9501,0.3568,38.6500,76,97,35110
1.9404,0.3470,39.3800,76,97,35113
1.9746,0.3666,39.3200,76,97,35117
1.9501,0.3617,39.3800,76,97,35121
1.9648,0.3519,39.3500,76,97,35124
2.0039,0.3666,39.2500,76,97,35127
1.9795,0.3470,39.3500,76,97,35130
2.0088,0.3617,39.2500,76,97,35134
1.9892,0.3519,39.3500,76,97,35137
1.9941,0.3568,39.3800,76,97,35140
2.0283,0.3666,39.2800,76,97,35143
2.0088,0.3519,39.3800,76,97,35147
2.0381,0.3617,39.3200,76,97,35150
2.0186,0.3519,39.4100,76,97,35153
2.0235,0.3519,39.4400,76,97,35156
2.0528,0.3568,39.3200,76,97,35161
2.0381,0.3568,39.3800,76,97,35164
2.0723,0.3617,39.2200,76,97,35167
2.0577,0.3519,39.3800,76,97,35170
2.0723,0.3470,39.3800,76,97,35174
2.1114,0.3715,39.3200,76,97,35177
2.0870,0.3519,39.4400,76,97,35180
2.1212,0.3617,39.2800,76,97,35183
2.1017,0.3519,39.3800,76,97,35187
2.1212,0.3470,39.3800,76,97,35190
2.1848,0.3568,39.2500,76,97,35193
2.1310,0.3715,39.3200,76,97,35196
2.1701,0.3568,39.2500,76,97,35201
2.1505,0.3519,39.3800,76,97,35204
2.1603,0.3470,39.3500,76,97,35207
2.1799,0.4106,39.2800,76,97,35210
2.1750,0.3519,39.3800,76,97,35214
2.2141,0.3568,39.2200,76,97,35217
2.1799,0.3519,39.4400,76,97,35220
2.1848,0.3568,39.3800,76,97,35223
2.2190,0.3617,39.0300,76,97,35227
2.1848,0.3568,39.4100,76,97,35230
2.2043,0.3470,39.2200,76,97,35233
2.1701,0.3470,39.3800,76,97,35236
2.1652,0.3519,39.3500,76,97,35240
2.1896,0.3617,39.2800,76,97,35244
2.1554,0.3519,39.4100,76,97,35247
2.1603,0.3617,39.2200,76,97,35250
2.1212,0.3519,39.3800,76,97,35254
2.1017,0.3519,39.4100,76,97,35257
2.1017,0.3617,39.3200,76,97,35260
2.0626,0.3519,39.3500,76,97,35263
2.0430,0.3568,39.2200,76,97,35267
1.9844,0.3519,39.4800,76,97,35270
1.9501,0.3519,39.3800,76,97,35273
1.9355,0.3617,39.2200,76,97,35276
1.8866,0.3568,39.3500,76,97,35280
1.8768,0.3617,39.3200,76,97,35283
1.8280,0.3519,39.3500,76,97,35287
1.8084,0.3519,38.6500,76,97,35290
1.8133,0.3617,39.2500,76,97,35294
1.8133,0.3568,39.3800,76,97,35297
1.7840,0.3568,39.2800,76,97,35300
1.7546,0.3519,39.4400,76,97,35303
1.7449,0.3519,39.3500,76,97,35307
1.7546,0.3617,39.3200,76,97,35310
1.7400,0.3568,39.3500,76,97,35313
1.7595,0.3617,39.2500,76,97,35316
1.7449,0.3519,39.3800,76,97,35320
1.7595,0.3519,39.4800,76,97,35323
1.7937,0.3617,39.2200,76,97,35326
1.7742,0.3568,39.3800,76,97,35330
1.8035,0.3568,39.2200,76,97,35334
1.7840,0.3519,39.3800,76,97,35337
1.7937,0.3519,39.4100,76,97,35340
1.8231,0.3617,39.2500,76,97,35343
1.8035,0.3519,39.4100,76,97,35347
1.8280,0.3617,39.2500,76,97,35350
1.8084,0.3861,39.4100,76,97,35353
1.8133,0.3568,39.3800,76,97,35356
1.8426,0.3617,39.3800,76,97,35360
1.8377,0.3470,39.3500,76,97,35363
1.8573,0.3568,39.2500,76,97,35366
1.8426,0.3568,39.3800,76,97,35369
1.8475,0.3519,39.3500,76,97,35374
1.8671,0.3568,39.2800,76,97,35377
1.8426,0.3568,39.4400,76,97,35380
1.8573,0.3470,39.2500,76,97,35383
1.8377,0.3519,39.3800,76,97,35387
1.8426,0.3519,39.3500,76,97,35390
1.8768,0.3617,38.7100,76,97,35393
1.8573,0.3519,39.3800,76,97,35396
1.8768,0.3519,39.2500,76,97,35400
1.8573,0.3812,39.3800,76,97,35403
1.8524,0.3617,39.3800,76,97,35406
1.8719,0.3617,39.3800,76,97,35409
1.8524,0.3519,39.3800,76,97,35414
1.8719,0.3470,39.2500,76,97,35417
1.8426,0.3470,39.3800,76,97,35420
1.8426,0.3568,39.4100,76,97,35423
1.8719,0.3617,39.1900,76,97,35427
1.8426,0.3519,39.2500,76,97,35430
1.8573,0.3568,39.2500,76,97,35433
1.8377,0.3470,39.3800,76,97,35437
1.8377,0.3617,39.3800,76,97,35440
1.8622,0.3568,39.2200,76,97,35443
1.8377,0.3568,39.4100,76,97,35446
1.8573,0.3568,39.2500,76,97,35450
1.8377,0.3519,39.3800,76,97,35453
1.8377,0.3470,39.3800,76,97,35457
1.8768,0.3617,39.3200,76,97,35460
1.8524,0.3568,39.3500,76,97,35464
1.8671,0.3568,39.2500,76,97,35467
1.8377,0.3519,38.7700,76,97,35470
1.8377,0.3519,39.3800,76,97,35473
1.8719,0.3470,39.1900,76,97,35477
1.8328,0.3519,39.3500,76,97,35480
1.8524,0.3617,39.2500,76,97,35483
1.8280,0.3519,39.3800,76,97,35486
1.8328,0.3519,39.4100,76,97,35490
1.8622,0.3617,39.2500,76,97,35493
1.8328,0.3519,39.3800,76,97,35496
1.8524,0.3568,39.2500,76,97,35500
1.8328,0.3519,39.4400,76,97,35504
1.8280,0.3519,39.3800,76,97,35508
1.8280,0.3519,39.3800,76,97,35511
1.8573,0.3568,39.2500,76,97,35515
1.8328,0.3421,39.3800,76,97,35518
1.8622,0.3519,38.4900,76,97,35521
1.8426,0.3519,39.3200,76,97,35525
1.8426,0.3470,39.3800,76,97,35528
1.8573,0.3568,39.1900,76,97,35531
1.8426,0.3519,39.3500,76,97,35534
1.8671,0.3519,39.2500,76,97,35538
1.8426,0.3470,39.3500,76,97,35542
1.8475,0.3470,39.3800,76,97,35545
1.8866,0.3470,39.3200,76,97,35548
1.8475,0.3519,39.3800,76,97,35552
1.8671,0.3568,39.3500,76,97,35555
1.8377,0.3519,39.3500,76,97,35558
1.8377,0.3470,39.3800,76,97,35561
1.8622,0.3568,39.2800,76,97,35565
1.8475,0.3519,39.3800,76,97,35568
1.8719,0.3519,39.2200,76,97,35571
1.8524,0.3421,39.2800,76,97,35574
1.8622,0.3519,39.4100,76,97,35578
1.8915,0.3568,39.1600,76,97,35581
1.8915,0.3519,39.4400,76,97,35585
1.9355,0.3519,39.2200,76,97,35588
1.9257,0.3519,39.4400,76,97,35592
1.9013,0.3861,39.3800,76,97,35595
1.9062,0.3568,39.3500,76,97,35598
1.9013,0.3519,39.3800,76,97,35601
1.9355,0.3519,39.2500,76,97,35605
1.9257,0.3519,39.3800,76,97,35608
1.9404,0.3519,39.3800,76,97,35611
1.9746,0.3568,39.2500,76,97,35614
1.9501,0.3519,39.3500,76,97,35618
1.9746,0.3568,39.2200,76,97,35621
1.9501,0.3470,39.3200,76,97,35624
1.9355,0.3421,39.3800,76,97,35628
1.9648,0.3568,39.3200,76,97,35632
1.9159,0.3519,39.3500,76,97,35635
1.9257,0.3519,39.2200,76,97,35638
1.8817,0.3470,39.3200,76,97,35641
1.8622,0.3519,39.3800,76,97,35645
1.8573,0.3568,39.3200,76,97,35648
1.8231,0.3470,39.3500,76,97,35651
1.8328,0.3519,39.2500,76,97,35654
1.7889,0.3519,39.3800,76,97,35658
1.7791,0.3519,39.3800,76,97,35661
1.7889,0.3617,39.2800,76,97,35664
1.7595,0.3470,39.3800,76,97,35667
1.7693,0.3617,39.2200,76,97,35672
1.7498,0.3519,39.2800,76,97,35675
1.7498,0.3470,39.4400,76,97,35678
1.7644,0.3568,39.3200,76,97,35681
1.7498,0.3519,39.3800,76,97,35685
1.7742,0.3519,39.2200,76,97,35688
1.7546,0.3470,39.2800,76,97,35691
1.7644,0.3470,39.3800,76,97,35694
1.7986,0.3519,39.3200,76,97,35698
1.7742,0.3812,39.4400,76,97,35701
1.8035,0.3519,39.1600,76,97,35704
1.7840,0.3519,39.4100,76,97,35707
1.7986,0.3519,39.3800,76,97,35712
1.8280,0.3617,39.3200,76,97,35715
1.8084,0.3519,39.3800,76,97,35718
1.8377,0.3519,39.2500,76,97,35721
1.8280,0.3470,39.3800,76,97,35725
1.8426,0.3470,39.3800,76,97,35728
1.8768,0.3568,39.2800,76,97,35731
1.8768,0.3470,39.3800,76,97,35734
1.9306,0.3519,39.2500,76,97,35738
1.9550,0.3470,39.3800,76,97,35741
2.0723,0.3519,39.4400,76,97,35744
2.2483,0.3519,39.3800,76,97,35747
2.4878,0.3470,39.3800,76,97,35751
2.8592,0.3519,39.2500,76,97,35755
3.1476,0.3470,39.3800,76,97,35758
3.4164,0.3715,39.3800,76,97,35761
3.6070,0.3617,39.2800,76,97,35765
3.5435,0.3519,39.3800,76,97,35768
3.4262,0.3519,39.2500,76,97,35771
2.9961,0.3470,39.3500,76,97,35774
2.5464,0.3470,39.4800,76,97,35778
2.1212,0.3568,39.3200,76,97,35781
1.7107,0.3470,39.3800,76,97,35784
1.4467,0.3519,39.2800,76,97,35787
1.2463,0.3519,39.3800,76,97,35791
1.1486,0.3470,39.3800,76,97,35794
1.1241,0.3519,39.3500,76,97,35798
1.1290,0.3519,39.3800,76,97,35801
1.2219,0.3763,39.2800,76,97,35805
1.2854,0.3470,39.3800,76,97,35808
1.3832,0.3470,39.4400,76,97,35811
1.5005,0.3617,39.2800,76,97,35814
1.5543,0.3470,39.3500,76,97,35818
1.6471,0.3617,39.3200,76,97,35821
1.6764,0.3470,39.3200,76,97,35824
1.7204,0.3470,39.3800,76,97,35827
1.7791,0.3568,39.2800,76,97,35831
1.8182,0.3519,39.4400,76,97,35834
1.8231,0.3519,39.2200,76,97,35837
1.8084,0.3666,39.3500,76,97,35841
1.8231,0.3470,39.4800,76,97,35845
1.8475,0.3470,39.3500,76,97,35848
1.8426,0.3519,39.4400,76,97,35851
1.8768,0.3617,39.4100,76,97,35854
1.8475,0.3519,39.4100,76,97,35858
1.8573,0.3470,39.4100,76,97,35861
1.9013,0.3617,39.2500,76,97,35864
1.8817,0.3470,39.3500,76,97,35867
1.9159,0.3617,39.2500,76,97,35871
1.8964,0.3666,39.3200,76,97,35874
1.9013,0.3470,39.4400,76,97,35877
1.9306,0.3568,39.2800,76,97,35880
1.8964,0.3519,39.3800,76,97,35885
1.9355,0.3617,39.3200,76,97,35888
1.9062,0.3666,39.4100,76,97,35891
1.9159,0.3470,39.4400,76,97,35894
1.9355,0.3519,39.3200,76,97,35898
1.9306,0.3519,39.3800,76,97,35901
1.9648,0.3666,39.3200,76,97,35904
1.9355,0.3421,39.3500,76,97,35907
1.9355,0.3470,39.4100,76,97,35911
1.9648,0.3617,39.3200,76,97,35914
1.9355,0.3519,39.3800,76,97,35917
1.9550,0.3568,39.2500,76,97,35921
1.9355,0.3421,39.3800,76,97,35924
1.9404,0.3421,39.3800,76,97,35928
1.9697,0.3666,39.3200,76,97,35931
1.9453,0.3470,39.4400,76,97,35935
1.9795,0.3568,39.2500,76,97,35938
1.9746,0.3519,39.3800,76,97,35941
1.9795,0.3519,39.4400,76,97,35944
1.9795,0.3568,39.3200,76,97,35948
1.9795,0.3470,39.4400,76,97,35951
2.0137,0.3568,39.2800,76,97,35954
1.9795,0.3470,39.3500,76,97,35957
1.9941,0.3519,39.3800,76,97,35961
2.0283,0.3617,39.2800,76,97,35964
2.0039,0.3519,39.4800,76,97,35968
2.0381,0.3568,39.2800,76,97,35971
2.0137,0.3519,39.4400,76,97,35975
2.0186,0.3666,39.4100,76,97,35978
2.0528,0.3568,39.3200,76,97,35981
2.0332,0.3470,39.3800,76,97,35984
2.0772,0.3568,39.2800,76,97,35988
2.0381,0.3470,39.3500,76,97,35991
2.0430,0.3470,39.3800,76,97,35994
2.0821,0.3519,39.3500,76,97,35997
2.0430,0.3519,39.3500,76,97,36000
2.0723,0.3470,39.2500,76,97,36004
2.0430,0.3519,39.3800,76,97,36007
2.0479,0.3470,39.3800,76,97,36011
2.0821,0.3470,39.2200,76,97,36014
2.0381,0.3519,39.3800,76,97,36018
2.0674,0.3568,39.2500,76,97,36021
2.0381,0.3470,39.3800,76,97,36024
2.0381,0.3372,39.3800,76,97,36027
2.0674,0.3812,39.5100,76,97,36031
2.0381,0.3519,39.4100,76,97,36034
2.0821,0.3519,39.2200,76,97,36037
2.0283,0.4008,39.3800,76,97,36040
2.0186,0.3470,39.3500,76,97,36044
2.0332,0.3617,39.3200,76,97,36047
1.9941,0.3617,39.3500,76,97,36050
1.9892,0.3519,39.2200,76,97,36054
1.9404,0.3470,39.3800,76,97,36058
1.9110,0.3470,39.3500,76,97,36061
1.9501,0.3617,39.2200,76,97,36064
1.8573,0.3568,39.3800,76,97,36067
1.8426,0.3519,38.4600,76,97,36071
1.7937,0.3470,39.4400,76,97,36074
1.7742,0.3519,39.3800,76,97,36077
1.7791,0.3470,39.2200,76,97,36080
1.7351,0.3568,39.3800,76,97,36084
1.7302,0.3568,39.2500,76,97,36087
1.7009,0.3519,39.4800,76,97,36090
1.6911,0.3470,39.3800,76,97,36093
1.7058,0.3470,39.3200,76,97,36098
1.6813,0.3617,39.3500,76,97,36101
1.6862,0.3519,39.2500,76,97,36104
1.6667,0.3666,39.3800,76,97,36107
1.6667,0.3470,39.3200,76,97,36111
1.6911,0.3617,39.2200,76,97,36114
1.7058,0.3568,39.2800,76,97,36119
1.7107,0.3470,39.4100,76,97,36122
1.7253,0.3861,39.3200,76,97,36125
1.7107,0.3470,39.2800,76,97,36128
1.7204,0.3470,39.4800,76,97,36132
1.7449,0.3519,39.3200,76,97,36135
1.7351,0.3519,39.4100,76,97,36139
1.7693,0.3666,39.2500,76,97,36142
1.7498,0.3519,39.3800,76,97,36146
1.7546,0.3470,39.3500,76,97,36149
1.7889,0.3568,39.2500,76,97,36152
1.7693,0.3470,39.3800,76,97,36155
1.8133,0.3519,39.2200,76,97,36159
1.7693,0.3519,39.3200,76,97,36162
1.7644,0.3470,39.5400,76,97,36165
1.7791,0.3568,39.4100,76,97,36168
1.7595,0.3470,39.4100,76,97,36172
1.7937,0.3568,39.2200,76,97,36175
1.7449,0.3519,39.3200,76,97,36178
1.7498,0.3519,39.4100,76,97,36182
1.7595,0.3519,39.2800,76,97,36186
1.7595,0.3470,39.3800,76,97,36189
1.8035,0.3519,39.2800,76,97,36192
1.7644,0.3519,39.3800,76,97,36195
1.7693,0.3470,39.4100,76,97,36199
1.7889,0.3568,39.2800,76,97,36202
1.7546,0.3470,39.5400,76,97,36205
1.7889,0.3519,39.2200,76,97,36208
1.7400,0.3421,39.3200,76,97,36212
1.7449,0.3470,39.5100,76,97,36215
1.7595,0.3519,39.2800,76,97,36218
1.7449,0.3470,39.3800,76,97,36221
1.7693,0.3519,39.2500,76,97,36226
1.7400,0.3519,39.3500,76,97,36229
1.7400,0.3470,39.3500,76,97,36232
1.7449,0.3470,39.3200,76,97,36235
1.7302,0.3519,39.3800,76,97,36239
1.7498,0.3617,39.2500,76,97,36242
1.7204,0.3519,39.4100,76,97,36245
1.7253,0.3470,39.3800,76,97,36248
1.7546,0.3568,39.2500,76,97,36252
1.7204,0.3519,39.3500,76,97,36255
1.7449,0.3617,39.2500,76,97,36258
1.7155,0.3470,39.3800,76,97,36261
1.7204,0.3470,39.4400,76,97,36265
1.7400,0.3568,39.2800,76,97,36269
1.7204,0.3519,39.3500,76,97,36272
1.7546,0.3519,39.2200,76,97,36275
1.7302,0.3470,39.4100,76,97,36279
1.7400,0.3470,39.4400,76,97,36282
1.7595,0.3519,39.3200,76,97,36285
1.7742,0.3715,39.3500,76,97,36288
1.8182,0.3519,39.2800,76,97,36292
1.7986,0.3421,39.6000,76,97,36295
1.8035,0.3519,39.3800,76,97,36298
1.8280,0.3568,39.2500,76,97,36301
1.8231,0.3519,39.3800,76,97,36305
1.8328,0.3568,39.3200,76,97,36308
1.8231,0.3470,39.3500,76,97,36312
1.8426,0.3470,39.3800,76,97,36315
1.8866,0.3568,39.2800,76,97,36319
1.8671,0.3519,39.3500,76,97,36322
1.9110,0.3812,39.2800,76,97,36325
1.8817,0.3470,39.3500,76,97,36328
1.8817,0.3470,39.3800,76,97,36332
1.8768,0.3519,39.3200,76,97,36335
1.8573,0.3470,39.3800,76,97,36338
1.8622,0.3568,39.3500,76,97,36341
1.8133,0.3470,39.3800,76,97,36345
1.7889,0.3470,39.4100,76,97,36348
1.7986,0.3715,39.2500,76,97,36352
1.7546,0.3666,39.4100,76,97,36355
1.7693,0.3568,39.2500,76,97,36359
1.7302,0.3421,39.3800,76,97,36362
1.7400,0.3470,39.3800,76,97,36365
1.7155,0.3568,39.2800,76,97,36368
1.6764,0.3470,39.3500,76,97,36372
1.6960,0.3568,39.2800,76,97,36375
1.6618,0.3519,39.3800,76,97,36378
1.6667,0.3617,39.3800,76,97,36381
1.6862,0.3519,39.2500,76,97,36385
1.6764,0.3470,39.3800,76,97,36388
1.7204,0.3568,39.2800,76,97,36391
1.6716,0.3519,39.4400,76,97,36395
1.6764,0.3666,39.3500,76,97,36399
1.7058,0.3617,39.2800,76,97,36402
1.6764,0.3519,39.3500,76,97,36405
1.7009,0.3568,39.2800,76,97,36408
1.6813,0.3470,39.3500,76,97,36412
1.6862,0.3666,39.3500,76,97,36415
1.7107,0.3861,39.2800,76,97,36418
1.6960,0.3519,39.4100,76,97,36421
1.7204,0.3470,39.2800,76,97,36425
1.7107,0.3519,39.3800,76,97,36428
1.7155,0.3470,39.3800,76,97,36431
1.7449,0.3519,39.3500,76,97,36434
1.7595,0.3519,39.3800,76,97,36439
1.7742,0.3568,39.3200,76,97,36442
1.7546,0.3519,39.3800,76,97,36445
1.7889,0.3470,39.4800,76,97,36448
1.9013,0.3470,39.3200,76,97,36452
2.0039,0.3470,39.4400,76,97,36455
2.2434,0.3617,39.2500,76,97,36458
2.4927,0.3470,39.4100,76,97,36461
2.8446,0.3519,39.3800,76,97,36465
3.2111,0.3666,39.2500,76,97,36468
3.3529,0.3568,39.3500,76,97,36471
3.4653,0.3568,39.2200,76,97,36474
3.3187,0.3470,39.4100,76,97,36478
3.0499,0.3470,39.3800,76,97,36482
2.6931,0.3568,39.3200,76,97,36485
2.1945,0.3519,39.3500,76,97,36488
1.8035,0.3568,39.2200,76,97,36492
1.4418,0.3470,39.3800,76,97,36495
1.2219,0.3568,39.3800,76,97,36498
1.0899,0.4057,39.2500,76,97,36501
1.0068,0.3519,39.3500,76,97,36505
1.0068,0.3568,39.2500,76,97,36508
1.0117,0.3470,39.3500,76,97,36511
1.0704,0.3470,39.3800,76,97,36514
1.1730,0.3470,39.2200,76,97,36518
1.2512,0.3568,39.3800,76,97,36521
1.3636,0.3568,39.3200,76,97,36525
1.4370,0.3470,39.3800,76,97,36528
1.5103,0.3470,39.3800,76,97,36532
1.5836,0.3568,39.3200,76,97,36535
1.6080,0.3519,39.3800,76,97,36538
1.6569,0.3519,39.2800,76,97,36541
1.6618,0.3470,39.3800,76,97,36545
1.6862,0.3519,39.3800,76,97,36548
1.7351,0.3617,39.3200,76,97,36551
1.7204,0.3519,39.3800,76,97,36554
1.7449,0.4057,39.2500,76,97,36558
1.7351,0.3470,39.3800,76,97,36561
1.7498,0.3470,39.3500,76,97,36564
1.8133,0.3568,39.2500,76,97,36568
1.7644,0.3519,39.3800,76,97,36572
1.7937,0.3519,39.1900,76,97,36575
1.7742,0.3470,39.5700,76,97,36578
1.7742,0.3470,39.3800,76,97,36581
1.7937,0.3568,39.3500,76,97,36585
1.7742,0.3519,39.3800,76,97,36588
1.8035,0.3568,39.2200,76,97,36591
1.7937,0.3470,39.3200,76,97,36594
1.7986,0.3470,39.3800,76,97,36598
1.8377,0.3568,39.1900,76,97,36601
1.7986,0.3470,39.3500,76,97,36604
1.8280,0.3519,39.2500,76,97,36608
1.8133,0.3470,39.0600,76,97,36612
1.8182,0.3470,39.4100,76,97,36615
1.8475,0.3568,39.2500,76,97,36618
1.8280,0.3763,39.4100,76,97,36621
1.8475,0.3519,39.2800,76,97,36625
1.8280,0.3470,39.3800,76,97,36628
1.8377,0.3519,39.3800,76,97,36631
1.8622,0.3568,39.2800,76,97,36634
1.8475,0.3568,39.3500,76,97,36638
1.8719,0.3519,39.4100,76,97,36641
1.8524,0.3470,39.4100,76,97,36644
1.8866,0.3519,39.3800,76,97,36647
1.9013,0.3617,39.3200,76,97,36652
1.8964,0.3568,39.4100,76,97,36655
1.8964,0.3519,39.2200,76,97,36658
1.8768,0.3470,39.3800,76,97,36661
1.8866,0.3519,39.4400,76,97,36665
1.9501,0.3470,39.2500,76,97,36668
1.8915,0.3470,39.3500,76,97,36671
1.9013,0.3519,39.2500,76,97,36674
1.8866,0.3519,39.3800,76,97,36678
1.8866,0.3519,39.3800,76,97,36681
1.9159,0.3715,39.3200,76,97,36684
1.9062,0.3519,39.2800,76,97,36687
1.9355,0.3519,39.2800,76,97,36691
1.9208,0.3470,39.6000,76,97,36695
1.9453,0.3519,39.3800,76,97,36698
1.9746,0.3666,39.1900,76,97,36701
1.9501,0.3617,39.3800,76,97,36705
1.9648,0.3519,38.4600,76,97,36708
1.9453,0.3470,39.3800,76,97,36711
1.9648,0.3470,39.4100,76,97,36714
1.9697,0.3568,39.2200,76,97,36718
1.9453,0.3470,39.3500,76,97,36721
1.9648,0.3519,39.3500,76,97,36724
1.9306,0.3519,39.3800,76,97,36727
1.9355,0.3519,39.3800,76,97,36732
1.9355,0.3617,39.3800,76,97,36736
1.9550,0.3568,39.2800,76,97,36740
1.9110,0.3470,39.3800,76,97,36743
1.9159,0.3470,39.2500,76,97,36746
1.8671,0.3519,39.3200,76,97,36749
1.8475,0.3519,39.3800,76,97,36753
1.8426,0.3568,39.2500,76,97,36756
1.7986,0.3470,39.4400,76,97,36759
1.8035,0.3519,39.2500,76,97,36762
1.7449,0.3519,39.3500,76,97,36766
1.7204,0.3470,39.3800,76,97,36769
1.7058,0.3519,39.3200,76,97,36772
1.6764,0.3519,39.3800,76,97,36775
1.7009,0.3519,39.2500,76,97,36780
1.6618,0.3519,39.4100,76,97,36783
1.6276,0.3470,39.4800,76,97,36786
1.6471,0.3568,39.3500,76,97,36789
1.6178,0.3470,39.3800,76,97,36793
1.6422,0.3519,39.2800,76,97,36796
1.6031,0.3519,39.4400,76,97,36799
1.6178,0.3763,39.3800,76,97,36802
1.6373,0.3568,39.2800,76,97,36806
1.6227,0.3470,39.5100,76,97,36809
1.6471,0.3470,39.2500,76,97,36812
1.6373,0.3519,39.3800,76,97,36815
1.6325,0.3470,39.4100,76,97,36819
